	G:\My Drive\Adam_G_Thesis\4_Data\Pilot\Raw_data\Raw_EMG_Data\2020.11.16.TAFTPilot\Footswitch_Signals\TAFT_P5_3x4_5_x_30_sec_Rep_3.2_148_1481Hz.c3d	G:\My Drive\Adam_G_Thesis\4_Data\Pilot\Raw_data\Raw_EMG_Data\2020.11.16.TAFTPilot\Footswitch_Signals\TAFT_P5_3x4_5_x_30_sec_Rep_3.2_148_1481Hz.c3d	G:\My Drive\Adam_G_Thesis\4_Data\Pilot\Raw_data\Raw_EMG_Data\2020.11.16.TAFTPilot\Footswitch_Signals\TAFT_P5_3x4_5_x_30_sec_Rep_3.2_148_1481Hz.c3d	G:\My Drive\Adam_G_Thesis\4_Data\Pilot\Raw_data\Raw_EMG_Data\2020.11.16.TAFTPilot\Footswitch_Signals\TAFT_P5_3x4_5_x_30_sec_Rep_3.2_148_1481Hz.c3d	G:\My Drive\Adam_G_Thesis\4_Data\Pilot\Raw_data\Raw_EMG_Data\2020.11.16.TAFTPilot\Footswitch_Signals\TAFT_P5_3x4_5_x_30_sec_Rep_3.2_148_1481Hz.c3d
	LEFT FOOT ON	RIGHT FOOT ON	ANALOGTIME	FRAMES	TIME
	EVENT_LABEL	EVENT_LABEL	FRAME_NUMBERS	FRAME_NUMBERS	FRAME_NUMBERS
	ORIGINAL	ORIGINAL	ORIGINAL	ORIGINAL	ORIGINAL
ITEM	X	X	X	X	X
1	1.1178	0.9666	0	1	0
2	3.0699	2.7081	0.00675	2	0.00675
3	3.7773	3.4344	0.0135	3	0.0135
4	4.52385	4.16205	0.02025	4	0.02025
5	5.2677	4.8951	0.027	5	0.027
6	5.9859	5.6133	0.03375	6	0.03375
7	6.71355	6.3396	0.0405	7	0.0405
8	7.182	7.08615	0.04725	8	0.04725
9	7.4682	7.8084	0.054	9	0.054
10	8.13375	8.52525	0.06075	10	0.06075
11	8.87625	9.2448	0.0675	11	0.0675
12	9.61065	9.96165	0.07425	12	0.07425
13	10.3302004	10.67715	0.081	13	0.081
14	11.0565006	11.43315	0.08775	14	0.08775
15	11.5506	12.17025	0.0945	15	0.0945
16	11.8611	12.8736004	0.10125	16	0.10125
17	12.4983	13.5850506	0.108	17	0.108
18	13.2192	14.3181	0.11475	18	0.11475
19	13.96035	15.0552	0.1215	19	0.1215
20	14.68935	15.7936496	0.12825	20	0.12825
21	15.42105	16.515899	0.135	21	0.135
22	16.1352	17.2192494	0.14175	22	0.14175
23	16.83045	17.90505	0.1485	23	0.1485
24	17.5540504	18.60165	0.15525	24	0.15525
25	18.2655006	19.30905	0.162	25	0.162
26	18.9567	20.0583	0.16875	26	0.16875
27	19.4076004	20.8035	0.1755	27	0.1755
28	19.7154006	21.50415	0.18225	28	0.18225
29	20.1554996	21.9469504	0.189	29	0.189
30	20.2175994	22.2534006	0.19575	30	0.19575
31	20.5011	22.93515	0.2025	31	0.2025
32	21.15315	23.6601	0.20925	32	0.20925
33	21.85515	24.3864	0.216	33	0.216
34	22.5882	25.0951496	0.22275	34	0.22275
35	23.32665	25.7863498	0.2295	35	0.2295
36	24.0354	26.487001	0.23625	36	0.23625
37	24.7374	27.201151	0.243	37	0.243
38	25.4353504	27.9126006	0.24975	38	0.24975
39	26.1157506	28.62945	0.2565	39	0.2565
40	26.8380004	29.3679	0.26325	40	0.26325
41	27.572401		0.27	41	0.27
42	28.2838506		0.27675	42	0.27675
43	29.450251		0.2835	43	0.2835
44			0.29025	44	0.29025
45			0.297	45	0.297
46			0.30375	46	0.30375
47			0.3105	47	0.3105
48			0.31725	48	0.31725
49			0.324	49	0.324
50			0.33075	50	0.33075
51			0.3375	51	0.3375
52			0.34425	52	0.34425
53			0.351	53	0.351
54			0.35775	54	0.35775
55			0.3645	55	0.3645
56			0.37125	56	0.37125
57			0.378	57	0.378
58			0.38475	58	0.38475
59			0.3915	59	0.3915
60			0.39825	60	0.39825
61			0.405	61	0.405
62			0.41175	62	0.41175
63			0.4185	63	0.4185
64			0.42525	64	0.42525
65			0.432	65	0.432
66			0.43875	66	0.43875
67			0.4455	67	0.4455
68			0.45225	68	0.45225
69			0.459	69	0.459
70			0.46575	70	0.46575
71			0.4725	71	0.4725
72			0.47925	72	0.47925
73			0.486	73	0.486
74			0.49275	74	0.49275
75			0.4995	75	0.4995
76			0.50625	76	0.50625
77			0.513	77	0.513
78			0.51975	78	0.51975
79			0.5265	79	0.5265
80			0.53325	80	0.53325
81			0.54	81	0.54
82			0.54675	82	0.54675
83			0.5535	83	0.5535
84			0.56025	84	0.56025
85			0.567	85	0.567
86			0.57375	86	0.57375
87			0.5805	87	0.5805
88			0.58725	88	0.58725
89			0.594	89	0.594
90			0.60075	90	0.60075
91			0.6075	91	0.6075
92			0.61425	92	0.61425
93			0.621	93	0.621
94			0.62775	94	0.62775
95			0.6345	95	0.6345
96			0.64125	96	0.64125
97			0.648	97	0.648
98			0.65475	98	0.65475
99			0.6615	99	0.6615
100			0.66825	100	0.66825
101			0.675	101	0.675
102			0.68175	102	0.68175
103			0.6885	103	0.6885
104			0.69525	104	0.69525
105			0.702	105	0.702
106			0.70875	106	0.70875
107			0.7155	107	0.7155
108			0.72225	108	0.72225
109			0.729	109	0.729
110			0.73575	110	0.73575
111			0.7425	111	0.7425
112			0.74925	112	0.74925
113			0.756	113	0.756
114			0.76275	114	0.76275
115			0.7695	115	0.7695
116			0.77625	116	0.77625
117			0.783	117	0.783
118			0.78975	118	0.78975
119			0.7965	119	0.7965
120			0.80325	120	0.80325
121			0.81	121	0.81
122			0.81675	122	0.81675
123			0.8235	123	0.8235
124			0.83025	124	0.83025
125			0.837	125	0.837
126			0.84375	126	0.84375
127			0.8505	127	0.8505
128			0.85725	128	0.85725
129			0.864	129	0.864
130			0.87075	130	0.87075
131			0.8775	131	0.8775
132			0.88425	132	0.88425
133			0.891	133	0.891
134			0.89775	134	0.89775
135			0.9045	135	0.9045
136			0.91125	136	0.91125
137			0.918	137	0.918
138			0.92475	138	0.92475
139			0.9315	139	0.9315
140			0.93825	140	0.93825
141			0.945	141	0.945
142			0.95175	142	0.95175
143			0.9585	143	0.9585
144			0.96525	144	0.96525
145			0.972	145	0.972
146			0.97875	146	0.97875
147			0.9855	147	0.9855
148			0.99225	148	0.99225
149			0.999	149	0.999
150			1.00575	150	1.00575
151			1.0125	151	1.0125
152			1.01925	152	1.01925
153			1.026	153	1.026
154			1.03275	154	1.03275
155			1.0395	155	1.0395
156			1.04625	156	1.04625
157			1.053	157	1.053
158			1.05975	158	1.05975
159			1.0665	159	1.0665
160			1.07325	160	1.07325
161			1.08	161	1.08
162			1.08675	162	1.08675
163			1.0935	163	1.0935
164			1.10025	164	1.10025
165			1.107	165	1.107
166			1.11375	166	1.11375
167			1.1205	167	1.1205
168			1.12725	168	1.12725
169			1.134	169	1.134
170			1.14075	170	1.14075
171			1.1475	171	1.1475
172			1.15425	172	1.15425
173			1.161	173	1.161
174			1.16775	174	1.16775
175			1.1745	175	1.1745
176			1.18125	176	1.18125
177			1.188	177	1.188
178			1.19475	178	1.19475
179			1.2015	179	1.2015
180			1.20825	180	1.20825
181			1.215	181	1.215
182			1.22175	182	1.22175
183			1.2285	183	1.2285
184			1.23525	184	1.23525
185			1.242	185	1.242
186			1.24875	186	1.24875
187			1.2555	187	1.2555
188			1.26225	188	1.26225
189			1.269	189	1.269
190			1.27575	190	1.27575
191			1.2825	191	1.2825
192			1.28925	192	1.28925
193			1.296	193	1.296
194			1.30275	194	1.30275
195			1.3095	195	1.3095
196			1.31625	196	1.31625
197			1.323	197	1.323
198			1.32975	198	1.32975
199			1.3365	199	1.3365
200			1.34325	200	1.34325
201			1.35	201	1.35
202			1.35675	202	1.35675
203			1.3635	203	1.3635
204			1.37025	204	1.37025
205			1.377	205	1.377
206			1.38375	206	1.38375
207			1.3905	207	1.3905
208			1.39725	208	1.39725
209			1.404	209	1.404
210			1.41075	210	1.41075
211			1.4175	211	1.4175
212			1.42425	212	1.42425
213			1.431	213	1.431
214			1.43775	214	1.43775
215			1.4445	215	1.4445
216			1.45125	216	1.45125
217			1.458	217	1.458
218			1.46475	218	1.46475
219			1.4715	219	1.4715
220			1.47825	220	1.47825
221			1.485	221	1.485
222			1.49175	222	1.49175
223			1.4985	223	1.4985
224			1.50525	224	1.50525
225			1.512	225	1.512
226			1.51875	226	1.51875
227			1.5255	227	1.5255
228			1.53225	228	1.53225
229			1.539	229	1.539
230			1.54575	230	1.54575
231			1.5525	231	1.5525
232			1.55925	232	1.55925
233			1.566	233	1.566
234			1.57275	234	1.57275
235			1.5795	235	1.5795
236			1.58625	236	1.58625
237			1.593	237	1.593
238			1.59975	238	1.59975
239			1.6065	239	1.6065
240			1.61325	240	1.61325
241			1.62	241	1.62
242			1.62675	242	1.62675
243			1.6335	243	1.6335
244			1.64025	244	1.64025
245			1.647	245	1.647
246			1.65375	246	1.65375
247			1.6605	247	1.6605
248			1.66725	248	1.66725
249			1.674	249	1.674
250			1.68075	250	1.68075
251			1.6875	251	1.6875
252			1.69425	252	1.69425
253			1.701	253	1.701
254			1.70775	254	1.70775
255			1.7145	255	1.7145
256			1.72125	256	1.72125
257			1.728	257	1.728
258			1.73475	258	1.73475
259			1.7415	259	1.7415
260			1.74825	260	1.74825
261			1.755	261	1.755
262			1.76175	262	1.76175
263			1.7685	263	1.7685
264			1.77525	264	1.77525
265			1.782	265	1.782
266			1.78875	266	1.78875
267			1.7955	267	1.7955
268			1.80225	268	1.80225
269			1.809	269	1.809
270			1.81575	270	1.81575
271			1.8225	271	1.8225
272			1.82925	272	1.82925
273			1.836	273	1.836
274			1.84275	274	1.84275
275			1.8495	275	1.8495
276			1.85625	276	1.85625
277			1.863	277	1.863
278			1.86975	278	1.86975
279			1.8765	279	1.8765
280			1.88325	280	1.88325
281			1.89	281	1.89
282			1.89675	282	1.89675
283			1.9035	283	1.9035
284			1.91025	284	1.91025
285			1.917	285	1.917
286			1.92375	286	1.92375
287			1.9305	287	1.9305
288			1.93725	288	1.93725
289			1.944	289	1.944
290			1.95075	290	1.95075
291			1.9575	291	1.9575
292			1.96425	292	1.96425
293			1.971	293	1.971
294			1.97775	294	1.97775
295			1.9845	295	1.9845
296			1.99125	296	1.99125
297			1.998	297	1.998
298			2.00475	298	2.00475
299			2.0115	299	2.0115
300			2.01825	300	2.01825
301			2.025	301	2.025
302			2.03175	302	2.03175
303			2.0385	303	2.0385
304			2.04525	304	2.04525
305			2.052	305	2.052
306			2.05875	306	2.05875
307			2.0655	307	2.0655
308			2.07225	308	2.07225
309			2.079	309	2.079
310			2.08575	310	2.08575
311			2.0925	311	2.0925
312			2.09925	312	2.09925
313			2.106	313	2.106
314			2.11275	314	2.11275
315			2.1195	315	2.1195
316			2.12625	316	2.12625
317			2.133	317	2.133
318			2.13975	318	2.13975
319			2.1465	319	2.1465
320			2.15325	320	2.15325
321			2.16	321	2.16
322			2.16675	322	2.16675
323			2.1735	323	2.1735
324			2.18025	324	2.18025
325			2.187	325	2.187
326			2.19375	326	2.19375
327			2.2005	327	2.2005
328			2.20725	328	2.20725
329			2.214	329	2.214
330			2.22075	330	2.22075
331			2.2275	331	2.2275
332			2.23425	332	2.23425
333			2.241	333	2.241
334			2.24775	334	2.24775
335			2.2545	335	2.2545
336			2.26125	336	2.26125
337			2.268	337	2.268
338			2.27475	338	2.27475
339			2.2815	339	2.2815
340			2.28825	340	2.28825
341			2.295	341	2.295
342			2.30175	342	2.30175
343			2.3085	343	2.3085
344			2.31525	344	2.31525
345			2.322	345	2.322
346			2.32875	346	2.32875
347			2.3355	347	2.3355
348			2.34225	348	2.34225
349			2.349	349	2.349
350			2.35575	350	2.35575
351			2.3625	351	2.3625
352			2.36925	352	2.36925
353			2.376	353	2.376
354			2.38275	354	2.38275
355			2.3895	355	2.3895
356			2.39625	356	2.39625
357			2.403	357	2.403
358			2.40975	358	2.40975
359			2.4165	359	2.4165
360			2.42325	360	2.42325
361			2.43	361	2.43
362			2.43675	362	2.43675
363			2.4435	363	2.4435
364			2.45025	364	2.45025
365			2.457	365	2.457
366			2.46375	366	2.46375
367			2.4705	367	2.4705
368			2.47725	368	2.47725
369			2.484	369	2.484
370			2.49075	370	2.49075
371			2.4975	371	2.4975
372			2.50425	372	2.50425
373			2.511	373	2.511
374			2.51775	374	2.51775
375			2.5245	375	2.5245
376			2.53125	376	2.53125
377			2.538	377	2.538
378			2.54475	378	2.54475
379			2.5515	379	2.5515
380			2.55825	380	2.55825
381			2.565	381	2.565
382			2.57175	382	2.57175
383			2.5785	383	2.5785
384			2.58525	384	2.58525
385			2.592	385	2.592
386			2.59875	386	2.59875
387			2.6055	387	2.6055
388			2.61225	388	2.61225
389			2.619	389	2.619
390			2.62575	390	2.62575
391			2.6325	391	2.6325
392			2.63925	392	2.63925
393			2.646	393	2.646
394			2.65275	394	2.65275
395			2.6595	395	2.6595
396			2.66625	396	2.66625
397			2.673	397	2.673
398			2.67975	398	2.67975
399			2.6865	399	2.6865
400			2.69325	400	2.69325
401			2.7	401	2.7
402			2.70675	402	2.70675
403			2.7135	403	2.7135
404			2.72025	404	2.72025
405			2.727	405	2.727
406			2.73375	406	2.73375
407			2.7405	407	2.7405
408			2.74725	408	2.74725
409			2.754	409	2.754
410			2.76075	410	2.76075
411			2.7675	411	2.7675
412			2.77425	412	2.77425
413			2.781	413	2.781
414			2.78775	414	2.78775
415			2.7945	415	2.7945
416			2.80125	416	2.80125
417			2.808	417	2.808
418			2.81475	418	2.81475
419			2.8215	419	2.8215
420			2.82825	420	2.82825
421			2.835	421	2.835
422			2.84175	422	2.84175
423			2.8485	423	2.8485
424			2.85525	424	2.85525
425			2.862	425	2.862
426			2.86875	426	2.86875
427			2.8755	427	2.8755
428			2.88225	428	2.88225
429			2.889	429	2.889
430			2.89575	430	2.89575
431			2.9025	431	2.9025
432			2.90925	432	2.90925
433			2.916	433	2.916
434			2.92275	434	2.92275
435			2.9295	435	2.9295
436			2.93625	436	2.93625
437			2.943	437	2.943
438			2.94975	438	2.94975
439			2.9565	439	2.9565
440			2.96325	440	2.96325
441			2.97	441	2.97
442			2.97675	442	2.97675
443			2.9835	443	2.9835
444			2.99025	444	2.99025
445			2.997	445	2.997
446			3.00375	446	3.00375
447			3.0105	447	3.0105
448			3.01725	448	3.01725
449			3.024	449	3.024
450			3.03075	450	3.03075
451			3.0375	451	3.0375
452			3.04425	452	3.04425
453			3.051	453	3.051
454			3.05775	454	3.05775
455			3.0645	455	3.0645
456			3.07125	456	3.07125
457			3.078	457	3.078
458			3.08475	458	3.08475
459			3.0915	459	3.0915
460			3.09825	460	3.09825
461			3.105	461	3.105
462			3.11175	462	3.11175
463			3.1185	463	3.1185
464			3.12525	464	3.12525
465			3.132	465	3.132
466			3.13875	466	3.13875
467			3.1455	467	3.1455
468			3.15225	468	3.15225
469			3.159	469	3.159
470			3.16575	470	3.16575
471			3.1725	471	3.1725
472			3.17925	472	3.17925
473			3.186	473	3.186
474			3.19275	474	3.19275
475			3.1995	475	3.1995
476			3.20625	476	3.20625
477			3.213	477	3.213
478			3.21975	478	3.21975
479			3.2265	479	3.2265
480			3.23325	480	3.23325
481			3.24	481	3.24
482			3.24675	482	3.24675
483			3.2535	483	3.2535
484			3.26025	484	3.26025
485			3.267	485	3.267
486			3.27375	486	3.27375
487			3.2805	487	3.2805
488			3.28725	488	3.28725
489			3.294	489	3.294
490			3.30075	490	3.30075
491			3.3075	491	3.3075
492			3.31425	492	3.31425
493			3.321	493	3.321
494			3.32775	494	3.32775
495			3.3345	495	3.3345
496			3.34125	496	3.34125
497			3.348	497	3.348
498			3.35475	498	3.35475
499			3.3615	499	3.3615
500			3.36825	500	3.36825
501			3.375	501	3.375
502			3.38175	502	3.38175
503			3.3885	503	3.3885
504			3.39525	504	3.39525
505			3.402	505	3.402
506			3.40875	506	3.40875
507			3.4155	507	3.4155
508			3.42225	508	3.42225
509			3.429	509	3.429
510			3.43575	510	3.43575
511			3.4425	511	3.4425
512			3.44925	512	3.44925
513			3.456	513	3.456
514			3.46275	514	3.46275
515			3.4695	515	3.4695
516			3.47625	516	3.47625
517			3.483	517	3.483
518			3.48975	518	3.48975
519			3.4965	519	3.4965
520			3.50325	520	3.50325
521			3.51	521	3.51
522			3.51675	522	3.51675
523			3.5235	523	3.5235
524			3.53025	524	3.53025
525			3.537	525	3.537
526			3.54375	526	3.54375
527			3.5505	527	3.5505
528			3.55725	528	3.55725
529			3.564	529	3.564
530			3.57075	530	3.57075
531			3.5775	531	3.5775
532			3.58425	532	3.58425
533			3.591	533	3.591
534			3.59775	534	3.59775
535			3.6045	535	3.6045
536			3.61125	536	3.61125
537			3.618	537	3.618
538			3.62475	538	3.62475
539			3.6315	539	3.6315
540			3.63825	540	3.63825
541			3.645	541	3.645
542			3.65175	542	3.65175
543			3.6585	543	3.6585
544			3.66525	544	3.66525
545			3.672	545	3.672
546			3.67875	546	3.67875
547			3.6855	547	3.6855
548			3.69225	548	3.69225
549			3.699	549	3.699
550			3.70575	550	3.70575
551			3.7125	551	3.7125
552			3.71925	552	3.71925
553			3.726	553	3.726
554			3.73275	554	3.73275
555			3.7395	555	3.7395
556			3.74625	556	3.74625
557			3.753	557	3.753
558			3.75975	558	3.75975
559			3.7665	559	3.7665
560			3.77325	560	3.77325
561			3.78	561	3.78
562			3.78675	562	3.78675
563			3.7935	563	3.7935
564			3.80025	564	3.80025
565			3.807	565	3.807
566			3.81375	566	3.81375
567			3.8205	567	3.8205
568			3.82725	568	3.82725
569			3.834	569	3.834
570			3.84075	570	3.84075
571			3.8475	571	3.8475
572			3.85425	572	3.85425
573			3.861	573	3.861
574			3.86775	574	3.86775
575			3.8745	575	3.8745
576			3.88125	576	3.88125
577			3.888	577	3.888
578			3.89475	578	3.89475
579			3.9015	579	3.9015
580			3.90825	580	3.90825
581			3.915	581	3.915
582			3.92175	582	3.92175
583			3.9285	583	3.9285
584			3.93525	584	3.93525
585			3.942	585	3.942
586			3.94875	586	3.94875
587			3.9555	587	3.9555
588			3.96225	588	3.96225
589			3.969	589	3.969
590			3.97575	590	3.97575
591			3.9825	591	3.9825
592			3.98925	592	3.98925
593			3.996	593	3.996
594			4.00275	594	4.00275
595			4.0095	595	4.0095
596			4.01625	596	4.01625
597			4.023	597	4.023
598			4.02975	598	4.02975
599			4.0365	599	4.0365
600			4.04325	600	4.04325
601			4.05	601	4.05
602			4.05675	602	4.05675
603			4.0635	603	4.0635
604			4.07025	604	4.07025
605			4.077	605	4.077
606			4.08375	606	4.08375
607			4.0905	607	4.0905
608			4.09725	608	4.09725
609			4.104	609	4.104
610			4.11075	610	4.11075
611			4.1175	611	4.1175
612			4.12425	612	4.12425
613			4.131	613	4.131
614			4.13775	614	4.13775
615			4.1445	615	4.1445
616			4.15125	616	4.15125
617			4.158	617	4.158
618			4.16475	618	4.16475
619			4.1715	619	4.1715
620			4.17825	620	4.17825
621			4.185	621	4.185
622			4.19175	622	4.19175
623			4.1985	623	4.1985
624			4.20525	624	4.20525
625			4.212	625	4.212
626			4.21875	626	4.21875
627			4.2255	627	4.2255
628			4.23225	628	4.23225
629			4.239	629	4.239
630			4.24575	630	4.24575
631			4.2525	631	4.2525
632			4.25925	632	4.25925
633			4.266	633	4.266
634			4.27275	634	4.27275
635			4.2795	635	4.2795
636			4.28625	636	4.28625
637			4.293	637	4.293
638			4.29975	638	4.29975
639			4.3065	639	4.3065
640			4.31325	640	4.31325
641			4.32	641	4.32
642			4.32675	642	4.32675
643			4.3335	643	4.3335
644			4.34025	644	4.34025
645			4.347	645	4.347
646			4.35375	646	4.35375
647			4.3605	647	4.3605
648			4.36725	648	4.36725
649			4.374	649	4.374
650			4.38075	650	4.38075
651			4.3875	651	4.3875
652			4.39425	652	4.39425
653			4.401	653	4.401
654			4.40775	654	4.40775
655			4.4145	655	4.4145
656			4.42125	656	4.42125
657			4.428	657	4.428
658			4.43475	658	4.43475
659			4.4415	659	4.4415
660			4.44825	660	4.44825
661			4.455	661	4.455
662			4.46175	662	4.46175
663			4.4685	663	4.4685
664			4.47525	664	4.47525
665			4.482	665	4.482
666			4.48875	666	4.48875
667			4.4955	667	4.4955
668			4.50225	668	4.50225
669			4.509	669	4.509
670			4.51575	670	4.51575
671			4.5225	671	4.5225
672			4.52925	672	4.52925
673			4.536	673	4.536
674			4.54275	674	4.54275
675			4.5495	675	4.5495
676			4.55625	676	4.55625
677			4.563	677	4.563
678			4.56975	678	4.56975
679			4.5765	679	4.5765
680			4.58325	680	4.58325
681			4.59	681	4.59
682			4.59675	682	4.59675
683			4.6035	683	4.6035
684			4.61025	684	4.61025
685			4.617	685	4.617
686			4.62375	686	4.62375
687			4.6305	687	4.6305
688			4.63725	688	4.63725
689			4.644	689	4.644
690			4.65075	690	4.65075
691			4.6575	691	4.6575
692			4.66425	692	4.66425
693			4.671	693	4.671
694			4.67775	694	4.67775
695			4.6845	695	4.6845
696			4.69125	696	4.69125
697			4.698	697	4.698
698			4.70475	698	4.70475
699			4.7115	699	4.7115
700			4.71825	700	4.71825
701			4.725	701	4.725
702			4.73175	702	4.73175
703			4.7385	703	4.7385
704			4.74525	704	4.74525
705			4.752	705	4.752
706			4.75875	706	4.75875
707			4.7655	707	4.7655
708			4.77225	708	4.77225
709			4.779	709	4.779
710			4.78575	710	4.78575
711			4.7925	711	4.7925
712			4.79925	712	4.79925
713			4.806	713	4.806
714			4.81275	714	4.81275
715			4.8195	715	4.8195
716			4.82625	716	4.82625
717			4.833	717	4.833
718			4.83975	718	4.83975
719			4.8465	719	4.8465
720			4.85325	720	4.85325
721			4.86	721	4.86
722			4.86675	722	4.86675
723			4.8735	723	4.8735
724			4.88025	724	4.88025
725			4.887	725	4.887
726			4.89375	726	4.89375
727			4.9005	727	4.9005
728			4.90725	728	4.90725
729			4.914	729	4.914
730			4.92075	730	4.92075
731			4.9275	731	4.9275
732			4.93425	732	4.93425
733			4.941	733	4.941
734			4.94775	734	4.94775
735			4.9545	735	4.9545
736			4.96125	736	4.96125
737			4.968	737	4.968
738			4.97475	738	4.97475
739			4.9815	739	4.9815
740			4.98825	740	4.98825
741			4.995	741	4.995
742			5.00175	742	5.00175
743			5.0085	743	5.0085
744			5.01525	744	5.01525
745			5.022	745	5.022
746			5.02875	746	5.02875
747			5.0355	747	5.0355
748			5.04225	748	5.04225
749			5.049	749	5.049
750			5.05575	750	5.05575
751			5.0625	751	5.0625
752			5.06925	752	5.06925
753			5.076	753	5.076
754			5.08275	754	5.08275
755			5.0895	755	5.0895
756			5.09625	756	5.09625
757			5.103	757	5.103
758			5.10975	758	5.10975
759			5.1165	759	5.1165
760			5.12325	760	5.12325
761			5.13	761	5.13
762			5.13675	762	5.13675
763			5.1435	763	5.1435
764			5.15025	764	5.15025
765			5.157	765	5.157
766			5.16375	766	5.16375
767			5.1705	767	5.1705
768			5.17725	768	5.17725
769			5.184	769	5.184
770			5.19075	770	5.19075
771			5.1975	771	5.1975
772			5.20425	772	5.20425
773			5.211	773	5.211
774			5.21775	774	5.21775
775			5.2245	775	5.2245
776			5.23125	776	5.23125
777			5.238	777	5.238
778			5.24475	778	5.24475
779			5.2515	779	5.2515
780			5.25825	780	5.25825
781			5.265	781	5.265
782			5.27175	782	5.27175
783			5.2785	783	5.2785
784			5.28525	784	5.28525
785			5.292	785	5.292
786			5.29875	786	5.29875
787			5.3055	787	5.3055
788			5.31225	788	5.31225
789			5.319	789	5.319
790			5.32575	790	5.32575
791			5.3325	791	5.3325
792			5.33925	792	5.33925
793			5.346	793	5.346
794			5.35275	794	5.35275
795			5.3595	795	5.3595
796			5.36625	796	5.36625
797			5.373	797	5.373
798			5.37975	798	5.37975
799			5.3865	799	5.3865
800			5.39325	800	5.39325
801			5.4	801	5.4
802			5.40675	802	5.40675
803			5.4135	803	5.4135
804			5.42025	804	5.42025
805			5.427	805	5.427
806			5.43375	806	5.43375
807			5.4405	807	5.4405
808			5.44725	808	5.44725
809			5.454	809	5.454
810			5.46075	810	5.46075
811			5.4675	811	5.4675
812			5.47425	812	5.47425
813			5.481	813	5.481
814			5.48775	814	5.48775
815			5.4945	815	5.4945
816			5.50125	816	5.50125
817			5.508	817	5.508
818			5.51475	818	5.51475
819			5.5215	819	5.5215
820			5.52825	820	5.52825
821			5.535	821	5.535
822			5.54175	822	5.54175
823			5.5485	823	5.5485
824			5.55525	824	5.55525
825			5.562	825	5.562
826			5.56875	826	5.56875
827			5.5755	827	5.5755
828			5.58225	828	5.58225
829			5.589	829	5.589
830			5.59575	830	5.59575
831			5.6025	831	5.6025
832			5.60925	832	5.60925
833			5.616	833	5.616
834			5.62275	834	5.62275
835			5.6295	835	5.6295
836			5.63625	836	5.63625
837			5.643	837	5.643
838			5.64975	838	5.64975
839			5.6565	839	5.6565
840			5.66325	840	5.66325
841			5.67	841	5.67
842			5.67675	842	5.67675
843			5.6835	843	5.6835
844			5.69025	844	5.69025
845			5.697	845	5.697
846			5.70375	846	5.70375
847			5.7105	847	5.7105
848			5.71725	848	5.71725
849			5.724	849	5.724
850			5.73075	850	5.73075
851			5.7375	851	5.7375
852			5.74425	852	5.74425
853			5.751	853	5.751
854			5.75775	854	5.75775
855			5.7645	855	5.7645
856			5.77125	856	5.77125
857			5.778	857	5.778
858			5.78475	858	5.78475
859			5.7915	859	5.7915
860			5.79825	860	5.79825
861			5.805	861	5.805
862			5.81175	862	5.81175
863			5.8185	863	5.8185
864			5.82525	864	5.82525
865			5.832	865	5.832
866			5.83875	866	5.83875
867			5.8455	867	5.8455
868			5.85225	868	5.85225
869			5.859	869	5.859
870			5.86575	870	5.86575
871			5.8725	871	5.8725
872			5.87925	872	5.87925
873			5.886	873	5.886
874			5.89275	874	5.89275
875			5.8995	875	5.8995
876			5.90625	876	5.90625
877			5.913	877	5.913
878			5.91975	878	5.91975
879			5.9265	879	5.9265
880			5.93325	880	5.93325
881			5.94	881	5.94
882			5.94675	882	5.94675
883			5.9535	883	5.9535
884			5.96025	884	5.96025
885			5.967	885	5.967
886			5.97375	886	5.97375
887			5.9805	887	5.9805
888			5.98725	888	5.98725
889			5.994	889	5.994
890			6.00075	890	6.00075
891			6.0075	891	6.0075
892			6.01425	892	6.01425
893			6.021	893	6.021
894			6.02775	894	6.02775
895			6.0345	895	6.0345
896			6.04125	896	6.04125
897			6.048	897	6.048
898			6.05475	898	6.05475
899			6.0615	899	6.0615
900			6.06825	900	6.06825
901			6.075	901	6.075
902			6.08175	902	6.08175
903			6.0885	903	6.0885
904			6.09525	904	6.09525
905			6.102	905	6.102
906			6.10875	906	6.10875
907			6.1155	907	6.1155
908			6.12225	908	6.12225
909			6.129	909	6.129
910			6.13575	910	6.13575
911			6.1425	911	6.1425
912			6.14925	912	6.14925
913			6.156	913	6.156
914			6.16275	914	6.16275
915			6.1695	915	6.1695
916			6.17625	916	6.17625
917			6.183	917	6.183
918			6.18975	918	6.18975
919			6.1965	919	6.1965
920			6.20325	920	6.20325
921			6.21	921	6.21
922			6.21675	922	6.21675
923			6.2235	923	6.2235
924			6.23025	924	6.23025
925			6.237	925	6.237
926			6.24375	926	6.24375
927			6.2505	927	6.2505
928			6.25725	928	6.25725
929			6.264	929	6.264
930			6.27075	930	6.27075
931			6.2775	931	6.2775
932			6.28425	932	6.28425
933			6.291	933	6.291
934			6.29775	934	6.29775
935			6.3045	935	6.3045
936			6.31125	936	6.31125
937			6.318	937	6.318
938			6.32475	938	6.32475
939			6.3315	939	6.3315
940			6.33825	940	6.33825
941			6.345	941	6.345
942			6.35175	942	6.35175
943			6.3585	943	6.3585
944			6.36525	944	6.36525
945			6.372	945	6.372
946			6.37875	946	6.37875
947			6.3855	947	6.3855
948			6.39225	948	6.39225
949			6.399	949	6.399
950			6.40575	950	6.40575
951			6.4125	951	6.4125
952			6.41925	952	6.41925
953			6.426	953	6.426
954			6.43275	954	6.43275
955			6.4395	955	6.4395
956			6.44625	956	6.44625
957			6.453	957	6.453
958			6.45975	958	6.45975
959			6.4665	959	6.4665
960			6.47325	960	6.47325
961			6.48	961	6.48
962			6.48675	962	6.48675
963			6.4935	963	6.4935
964			6.50025	964	6.50025
965			6.507	965	6.507
966			6.51375	966	6.51375
967			6.5205	967	6.5205
968			6.52725	968	6.52725
969			6.534	969	6.534
970			6.54075	970	6.54075
971			6.5475	971	6.5475
972			6.55425	972	6.55425
973			6.561	973	6.561
974			6.56775	974	6.56775
975			6.5745	975	6.5745
976			6.58125	976	6.58125
977			6.588	977	6.588
978			6.59475	978	6.59475
979			6.6015	979	6.6015
980			6.60825	980	6.60825
981			6.615	981	6.615
982			6.62175	982	6.62175
983			6.6285	983	6.6285
984			6.63525	984	6.63525
985			6.642	985	6.642
986			6.64875	986	6.64875
987			6.6555	987	6.6555
988			6.66225	988	6.66225
989			6.669	989	6.669
990			6.67575	990	6.67575
991			6.6825	991	6.6825
992			6.68925	992	6.68925
993			6.696	993	6.696
994			6.70275	994	6.70275
995			6.7095	995	6.7095
996			6.71625	996	6.71625
997			6.723	997	6.723
998			6.72975	998	6.72975
999			6.7365	999	6.7365
1000			6.74325	1000	6.74325
1001			6.75	1001	6.75
1002			6.75675	1002	6.75675
1003			6.7635	1003	6.7635
1004			6.77025	1004	6.77025
1005			6.777	1005	6.777
1006			6.78375	1006	6.78375
1007			6.7905	1007	6.7905
1008			6.79725	1008	6.79725
1009			6.804	1009	6.804
1010			6.81075	1010	6.81075
1011			6.8175	1011	6.8175
1012			6.82425	1012	6.82425
1013			6.831	1013	6.831
1014			6.83775	1014	6.83775
1015			6.8445	1015	6.8445
1016			6.85125	1016	6.85125
1017			6.858	1017	6.858
1018			6.86475	1018	6.86475
1019			6.8715	1019	6.8715
1020			6.87825	1020	6.87825
1021			6.885	1021	6.885
1022			6.89175	1022	6.89175
1023			6.8985	1023	6.8985
1024			6.90525	1024	6.90525
1025			6.912	1025	6.912
1026			6.91875	1026	6.91875
1027			6.9255	1027	6.9255
1028			6.93225	1028	6.93225
1029			6.939	1029	6.939
1030			6.94575	1030	6.94575
1031			6.9525	1031	6.9525
1032			6.95925	1032	6.95925
1033			6.966	1033	6.966
1034			6.97275	1034	6.97275
1035			6.9795	1035	6.9795
1036			6.98625	1036	6.98625
1037			6.993	1037	6.993
1038			6.99975	1038	6.99975
1039			7.0065	1039	7.0065
1040			7.01325	1040	7.01325
1041			7.02	1041	7.02
1042			7.02675	1042	7.02675
1043			7.0335	1043	7.0335
1044			7.04025	1044	7.04025
1045			7.047	1045	7.047
1046			7.05375	1046	7.05375
1047			7.0605	1047	7.0605
1048			7.06725	1048	7.06725
1049			7.074	1049	7.074
1050			7.08075	1050	7.08075
1051			7.0875	1051	7.0875
1052			7.09425	1052	7.09425
1053			7.101	1053	7.101
1054			7.10775	1054	7.10775
1055			7.1145	1055	7.1145
1056			7.12125	1056	7.12125
1057			7.128	1057	7.128
1058			7.13475	1058	7.13475
1059			7.1415	1059	7.1415
1060			7.14825	1060	7.14825
1061			7.155	1061	7.155
1062			7.16175	1062	7.16175
1063			7.1685	1063	7.1685
1064			7.17525	1064	7.17525
1065			7.182	1065	7.182
1066			7.18875	1066	7.18875
1067			7.1955	1067	7.1955
1068			7.20225	1068	7.20225
1069			7.209	1069	7.209
1070			7.21575	1070	7.21575
1071			7.2225	1071	7.2225
1072			7.22925	1072	7.22925
1073			7.236	1073	7.236
1074			7.24275	1074	7.24275
1075			7.2495	1075	7.2495
1076			7.25625	1076	7.25625
1077			7.263	1077	7.263
1078			7.26975	1078	7.26975
1079			7.2765	1079	7.2765
1080			7.28325	1080	7.28325
1081			7.29	1081	7.29
1082			7.29675	1082	7.29675
1083			7.3035	1083	7.3035
1084			7.31025	1084	7.31025
1085			7.317	1085	7.317
1086			7.32375	1086	7.32375
1087			7.3305	1087	7.3305
1088			7.33725	1088	7.33725
1089			7.344	1089	7.344
1090			7.35075	1090	7.35075
1091			7.3575	1091	7.3575
1092			7.36425	1092	7.36425
1093			7.371	1093	7.371
1094			7.37775	1094	7.37775
1095			7.3845	1095	7.3845
1096			7.39125	1096	7.39125
1097			7.398	1097	7.398
1098			7.40475	1098	7.40475
1099			7.4115	1099	7.4115
1100			7.41825	1100	7.41825
1101			7.425	1101	7.425
1102			7.43175	1102	7.43175
1103			7.4385	1103	7.4385
1104			7.44525	1104	7.44525
1105			7.452	1105	7.452
1106			7.45875	1106	7.45875
1107			7.4655	1107	7.4655
1108			7.47225	1108	7.47225
1109			7.479	1109	7.479
1110			7.48575	1110	7.48575
1111			7.4925	1111	7.4925
1112			7.49925	1112	7.49925
1113			7.506	1113	7.506
1114			7.51275	1114	7.51275
1115			7.5195	1115	7.5195
1116			7.52625	1116	7.52625
1117			7.533	1117	7.533
1118			7.53975	1118	7.53975
1119			7.5465	1119	7.5465
1120			7.55325	1120	7.55325
1121			7.56	1121	7.56
1122			7.56675	1122	7.56675
1123			7.5735	1123	7.5735
1124			7.58025	1124	7.58025
1125			7.587	1125	7.587
1126			7.59375	1126	7.59375
1127			7.6005	1127	7.6005
1128			7.60725	1128	7.60725
1129			7.614	1129	7.614
1130			7.62075	1130	7.62075
1131			7.6275	1131	7.6275
1132			7.63425	1132	7.63425
1133			7.641	1133	7.641
1134			7.64775	1134	7.64775
1135			7.6545	1135	7.6545
1136			7.66125	1136	7.66125
1137			7.668	1137	7.668
1138			7.67475	1138	7.67475
1139			7.6815	1139	7.6815
1140			7.68825	1140	7.68825
1141			7.695	1141	7.695
1142			7.70175	1142	7.70175
1143			7.7085	1143	7.7085
1144			7.71525	1144	7.71525
1145			7.722	1145	7.722
1146			7.72875	1146	7.72875
1147			7.7355	1147	7.7355
1148			7.74225	1148	7.74225
1149			7.749	1149	7.749
1150			7.75575	1150	7.75575
1151			7.7625	1151	7.7625
1152			7.76925	1152	7.76925
1153			7.776	1153	7.776
1154			7.78275	1154	7.78275
1155			7.7895	1155	7.7895
1156			7.79625	1156	7.79625
1157			7.803	1157	7.803
1158			7.80975	1158	7.80975
1159			7.8165	1159	7.8165
1160			7.82325	1160	7.82325
1161			7.83	1161	7.83
1162			7.83675	1162	7.83675
1163			7.8435	1163	7.8435
1164			7.85025	1164	7.85025
1165			7.857	1165	7.857
1166			7.86375	1166	7.86375
1167			7.8705	1167	7.8705
1168			7.87725	1168	7.87725
1169			7.884	1169	7.884
1170			7.89075	1170	7.89075
1171			7.8975	1171	7.8975
1172			7.90425	1172	7.90425
1173			7.911	1173	7.911
1174			7.91775	1174	7.91775
1175			7.9245	1175	7.9245
1176			7.93125	1176	7.93125
1177			7.938	1177	7.938
1178			7.94475	1178	7.94475
1179			7.9515	1179	7.9515
1180			7.95825	1180	7.95825
1181			7.965	1181	7.965
1182			7.97175	1182	7.97175
1183			7.9785	1183	7.9785
1184			7.98525	1184	7.98525
1185			7.992	1185	7.992
1186			7.99875	1186	7.99875
1187			8.0055	1187	8.0055
1188			8.01225	1188	8.01225
1189			8.019	1189	8.019
1190			8.02575	1190	8.02575
1191			8.0325	1191	8.0325
1192			8.03925	1192	8.03925
1193			8.046	1193	8.046
1194			8.05275	1194	8.05275
1195			8.0595	1195	8.0595
1196			8.06625	1196	8.06625
1197			8.073	1197	8.073
1198			8.07975	1198	8.07975
1199			8.0865	1199	8.0865
1200			8.09325	1200	8.09325
1201			8.1	1201	8.1
1202			8.10675	1202	8.10675
1203			8.1135	1203	8.1135
1204			8.12025	1204	8.12025
1205			8.127	1205	8.127
1206			8.13375	1206	8.13375
1207			8.1405	1207	8.1405
1208			8.14725	1208	8.14725
1209			8.154	1209	8.154
1210			8.16075	1210	8.16075
1211			8.1675	1211	8.1675
1212			8.17425	1212	8.17425
1213			8.181	1213	8.181
1214			8.18775	1214	8.18775
1215			8.1945	1215	8.1945
1216			8.20125	1216	8.20125
1217			8.208	1217	8.208
1218			8.21475	1218	8.21475
1219			8.2215	1219	8.2215
1220			8.228251	1220	8.228251
1221			8.235	1221	8.235
1222			8.24175	1222	8.24175
1223			8.2485	1223	8.2485
1224			8.25525	1224	8.25525
1225			8.262	1225	8.262
1226			8.26875	1226	8.26875
1227			8.2755	1227	8.2755
1228			8.28225	1228	8.28225
1229			8.289	1229	8.289
1230			8.29575	1230	8.29575
1231			8.3025	1231	8.3025
1232			8.30925	1232	8.30925
1233			8.316	1233	8.316
1234			8.32275	1234	8.32275
1235			8.3295	1235	8.3295
1236			8.33625	1236	8.33625
1237			8.343	1237	8.343
1238			8.34975	1238	8.34975
1239			8.3565	1239	8.3565
1240			8.36325	1240	8.36325
1241			8.37	1241	8.37
1242			8.37675	1242	8.37675
1243			8.3835	1243	8.3835
1244			8.39025	1244	8.39025
1245			8.397	1245	8.397
1246			8.40375	1246	8.40375
1247			8.4105	1247	8.4105
1248			8.41725	1248	8.41725
1249			8.424	1249	8.424
1250			8.43075	1250	8.43075
1251			8.4375	1251	8.4375
1252			8.44425	1252	8.44425
1253			8.451	1253	8.451
1254			8.45775	1254	8.45775
1255			8.4645	1255	8.4645
1256			8.47125	1256	8.47125
1257			8.478	1257	8.478
1258			8.48475	1258	8.48475
1259			8.4915	1259	8.4915
1260			8.49825	1260	8.49825
1261			8.505	1261	8.505
1262			8.51175	1262	8.51175
1263			8.5185	1263	8.5185
1264			8.52525	1264	8.52525
1265			8.532	1265	8.532
1266			8.53875	1266	8.53875
1267			8.5455	1267	8.5455
1268			8.55225	1268	8.55225
1269			8.559	1269	8.559
1270			8.56575	1270	8.56575
1271			8.5725	1271	8.5725
1272			8.57925	1272	8.57925
1273			8.586	1273	8.586
1274			8.59275	1274	8.59275
1275			8.5995	1275	8.5995
1276			8.60625	1276	8.60625
1277			8.613	1277	8.613
1278			8.61975	1278	8.61975
1279			8.6265	1279	8.6265
1280			8.63325	1280	8.63325
1281			8.64	1281	8.64
1282			8.64675	1282	8.64675
1283			8.6535	1283	8.6535
1284			8.66025	1284	8.66025
1285			8.667	1285	8.667
1286			8.67375	1286	8.67375
1287			8.6805	1287	8.6805
1288			8.68725	1288	8.68725
1289			8.694	1289	8.694
1290			8.70075	1290	8.70075
1291			8.7075	1291	8.7075
1292			8.71425	1292	8.71425
1293			8.721	1293	8.721
1294			8.72775	1294	8.72775
1295			8.7345	1295	8.7345
1296			8.74125	1296	8.74125
1297			8.748	1297	8.748
1298			8.75475	1298	8.75475
1299			8.7615	1299	8.7615
1300			8.76825	1300	8.76825
1301			8.775	1301	8.775
1302			8.78175	1302	8.78175
1303			8.7885	1303	8.7885
1304			8.79525	1304	8.79525
1305			8.802	1305	8.802
1306			8.80875	1306	8.80875
1307			8.8155	1307	8.8155
1308			8.82225	1308	8.82225
1309			8.829	1309	8.829
1310			8.83575	1310	8.83575
1311			8.8425	1311	8.8425
1312			8.84925	1312	8.84925
1313			8.856	1313	8.856
1314			8.86275	1314	8.86275
1315			8.8695	1315	8.8695
1316			8.87625	1316	8.87625
1317			8.883	1317	8.883
1318			8.88975	1318	8.88975
1319			8.8965	1319	8.8965
1320			8.90325	1320	8.90325
1321			8.91	1321	8.91
1322			8.91675	1322	8.91675
1323			8.9235	1323	8.9235
1324			8.93025	1324	8.93025
1325			8.937	1325	8.937
1326			8.94375	1326	8.94375
1327			8.9505	1327	8.9505
1328			8.95725	1328	8.95725
1329			8.964	1329	8.964
1330			8.97075	1330	8.97075
1331			8.9775	1331	8.9775
1332			8.98425	1332	8.98425
1333			8.991	1333	8.991
1334			8.99775	1334	8.99775
1335			9.0045	1335	9.0045
1336			9.01125	1336	9.01125
1337			9.018	1337	9.018
1338			9.02475	1338	9.02475
1339			9.0315	1339	9.0315
1340			9.03825	1340	9.03825
1341			9.045	1341	9.045
1342			9.05175	1342	9.05175
1343			9.0585	1343	9.0585
1344			9.06525	1344	9.06525
1345			9.072001	1345	9.072001
1346			9.07875	1346	9.07875
1347			9.0855	1347	9.0855
1348			9.09225	1348	9.09225
1349			9.099	1349	9.099
1350			9.10575	1350	9.10575
1351			9.1125	1351	9.1125
1352			9.11925	1352	9.11925
1353			9.126	1353	9.126
1354			9.132751	1354	9.132751
1355			9.1395	1355	9.1395
1356			9.14625	1356	9.14625
1357			9.153	1357	9.153
1358			9.15975	1358	9.15975
1359			9.1665	1359	9.1665
1360			9.17325	1360	9.17325
1361			9.18	1361	9.18
1362			9.18675	1362	9.18675
1363			9.1935	1363	9.1935
1364			9.20025	1364	9.20025
1365			9.207	1365	9.207
1366			9.21375	1366	9.21375
1367			9.2205	1367	9.2205
1368			9.22725	1368	9.22725
1369			9.234	1369	9.234
1370			9.24075	1370	9.24075
1371			9.2475	1371	9.2475
1372			9.25425	1372	9.25425
1373			9.261	1373	9.261
1374			9.26775	1374	9.26775
1375			9.2745	1375	9.2745
1376			9.28125	1376	9.28125
1377			9.288	1377	9.288
1378			9.29475	1378	9.29475
1379			9.3015	1379	9.3015
1380			9.30825	1380	9.30825
1381			9.315	1381	9.315
1382			9.32175	1382	9.32175
1383			9.3285	1383	9.3285
1384			9.33525	1384	9.33525
1385			9.342	1385	9.342
1386			9.34875	1386	9.34875
1387			9.3555	1387	9.3555
1388			9.36225	1388	9.36225
1389			9.369	1389	9.369
1390			9.37575	1390	9.37575
1391			9.3825	1391	9.3825
1392			9.38925	1392	9.38925
1393			9.396	1393	9.396
1394			9.40275	1394	9.40275
1395			9.4095	1395	9.4095
1396			9.41625	1396	9.41625
1397			9.423	1397	9.423
1398			9.42975	1398	9.42975
1399			9.4365	1399	9.4365
1400			9.44325	1400	9.44325
1401			9.45	1401	9.45
1402			9.45675	1402	9.45675
1403			9.4635	1403	9.4635
1404			9.47025	1404	9.47025
1405			9.477	1405	9.477
1406			9.48375	1406	9.48375
1407			9.4905	1407	9.4905
1408			9.49725	1408	9.49725
1409			9.504	1409	9.504
1410			9.51075	1410	9.51075
1411			9.5175	1411	9.5175
1412			9.52425	1412	9.52425
1413			9.531	1413	9.531
1414			9.53775	1414	9.53775
1415			9.5445	1415	9.5445
1416			9.55125	1416	9.55125
1417			9.558	1417	9.558
1418			9.56475	1418	9.56475
1419			9.5715	1419	9.5715
1420			9.57825	1420	9.57825
1421			9.585	1421	9.585
1422			9.59175	1422	9.59175
1423			9.5985	1423	9.5985
1424			9.60525	1424	9.60525
1425			9.612	1425	9.612
1426			9.61875	1426	9.61875
1427			9.6255	1427	9.6255
1428			9.63225	1428	9.63225
1429			9.639	1429	9.639
1430			9.64575	1430	9.64575
1431			9.6525	1431	9.6525
1432			9.65925	1432	9.65925
1433			9.666	1433	9.666
1434			9.67275	1434	9.67275
1435			9.6795	1435	9.6795
1436			9.68625	1436	9.68625
1437			9.693	1437	9.693
1438			9.69975	1438	9.69975
1439			9.7065	1439	9.7065
1440			9.71325	1440	9.71325
1441			9.72	1441	9.72
1442			9.72675	1442	9.72675
1443			9.7335	1443	9.7335
1444			9.74025	1444	9.74025
1445			9.747	1445	9.747
1446			9.75375	1446	9.75375
1447			9.7605	1447	9.7605
1448			9.76725	1448	9.76725
1449			9.774	1449	9.774
1450			9.78075	1450	9.78075
1451			9.7875	1451	9.7875
1452			9.79425	1452	9.79425
1453			9.801	1453	9.801
1454			9.80775	1454	9.80775
1455			9.8145	1455	9.8145
1456			9.82125	1456	9.82125
1457			9.828	1457	9.828
1458			9.83475	1458	9.83475
1459			9.8415	1459	9.8415
1460			9.84825	1460	9.84825
1461			9.855	1461	9.855
1462			9.86175	1462	9.86175
1463			9.8685	1463	9.8685
1464			9.87525	1464	9.87525
1465			9.882	1465	9.882
1466			9.88875	1466	9.88875
1467			9.8955	1467	9.8955
1468			9.90225	1468	9.90225
1469			9.909	1469	9.909
1470			9.915751	1470	9.915751
1471			9.9225	1471	9.9225
1472			9.92925	1472	9.92925
1473			9.936	1473	9.936
1474			9.94275	1474	9.94275
1475			9.9495	1475	9.9495
1476			9.95625	1476	9.95625
1477			9.963	1477	9.963
1478			9.96975	1478	9.96975
1479			9.976501	1479	9.976501
1480			9.98325	1480	9.98325
1481			9.99	1481	9.99
1482			9.99675	1482	9.99675
1483			10.0035	1483	10.0035
1484			10.01025	1484	10.01025
1485			10.017	1485	10.017
1486			10.02375	1486	10.02375
1487			10.0305	1487	10.0305
1488			10.03725	1488	10.03725
1489			10.044	1489	10.044
1490			10.05075	1490	10.05075
1491			10.0575	1491	10.0575
1492			10.06425	1492	10.06425
1493			10.071	1493	10.071
1494			10.07775	1494	10.07775
1495			10.0845	1495	10.0845
1496			10.09125	1496	10.09125
1497			10.098	1497	10.098
1498			10.10475	1498	10.10475
1499			10.1115	1499	10.1115
1500			10.11825	1500	10.11825
1501			10.125	1501	10.125
1502			10.13175	1502	10.13175
1503			10.1385	1503	10.1385
1504			10.14525	1504	10.14525
1505			10.152	1505	10.152
1506			10.15875	1506	10.15875
1507			10.1655	1507	10.1655
1508			10.17225	1508	10.17225
1509			10.179	1509	10.179
1510			10.18575	1510	10.18575
1511			10.1925	1511	10.1925
1512			10.19925	1512	10.19925
1513			10.206	1513	10.206
1514			10.21275	1514	10.21275
1515			10.2195	1515	10.2195
1516			10.22625	1516	10.22625
1517			10.233	1517	10.233
1518			10.23975	1518	10.23975
1519			10.2465	1519	10.2465
1520			10.25325	1520	10.25325
1521			10.26	1521	10.26
1522			10.26675	1522	10.26675
1523			10.2735	1523	10.2735
1524			10.28025	1524	10.28025
1525			10.287	1525	10.287
1526			10.29375	1526	10.29375
1527			10.3005	1527	10.3005
1528			10.30725	1528	10.30725
1529			10.314	1529	10.314
1530			10.32075	1530	10.32075
1531			10.3275	1531	10.3275
1532			10.33425	1532	10.33425
1533			10.341	1533	10.341
1534			10.34775	1534	10.34775
1535			10.3545	1535	10.3545
1536			10.36125	1536	10.36125
1537			10.368	1537	10.368
1538			10.37475	1538	10.37475
1539			10.3815	1539	10.3815
1540			10.38825	1540	10.38825
1541			10.395	1541	10.395
1542			10.40175	1542	10.40175
1543			10.4085	1543	10.4085
1544			10.41525	1544	10.41525
1545			10.422	1545	10.422
1546			10.42875	1546	10.42875
1547			10.4355	1547	10.4355
1548			10.44225	1548	10.44225
1549			10.449	1549	10.449
1550			10.45575	1550	10.45575
1551			10.4625	1551	10.4625
1552			10.46925	1552	10.46925
1553			10.476	1553	10.476
1554			10.48275	1554	10.48275
1555			10.4895	1555	10.4895
1556			10.49625	1556	10.49625
1557			10.503	1557	10.503
1558			10.50975	1558	10.50975
1559			10.5165	1559	10.5165
1560			10.52325	1560	10.52325
1561			10.53	1561	10.53
1562			10.53675	1562	10.53675
1563			10.5435	1563	10.5435
1564			10.55025	1564	10.55025
1565			10.557	1565	10.557
1566			10.56375	1566	10.56375
1567			10.5705	1567	10.5705
1568			10.57725	1568	10.57725
1569			10.584	1569	10.584
1570			10.59075	1570	10.59075
1571			10.5975	1571	10.5975
1572			10.60425	1572	10.60425
1573			10.611	1573	10.611
1574			10.61775	1574	10.61775
1575			10.6245	1575	10.6245
1576			10.63125	1576	10.63125
1577			10.638	1577	10.638
1578			10.64475	1578	10.64475
1579			10.6515	1579	10.6515
1580			10.65825	1580	10.65825
1581			10.665	1581	10.665
1582			10.67175	1582	10.67175
1583			10.6785	1583	10.6785
1584			10.68525	1584	10.68525
1585			10.692	1585	10.692
1586			10.69875	1586	10.69875
1587			10.7055	1587	10.7055
1588			10.71225	1588	10.71225
1589			10.719	1589	10.719
1590			10.72575	1590	10.72575
1591			10.7325	1591	10.7325
1592			10.73925	1592	10.73925
1593			10.746	1593	10.746
1594			10.75275	1594	10.75275
1595			10.759501	1595	10.759501
1596			10.76625	1596	10.76625
1597			10.773	1597	10.773
1598			10.77975	1598	10.77975
1599			10.7865	1599	10.7865
1600			10.79325	1600	10.79325
1601			10.8	1601	10.8
1602			10.80675	1602	10.80675
1603			10.8135	1603	10.8135
1604			10.820251	1604	10.820251
1605			10.827	1605	10.827
1606			10.83375	1606	10.83375
1607			10.8405	1607	10.8405
1608			10.84725	1608	10.84725
1609			10.854	1609	10.854
1610			10.86075	1610	10.86075
1611			10.8675	1611	10.8675
1612			10.87425	1612	10.87425
1613			10.881	1613	10.881
1614			10.88775	1614	10.88775
1615			10.8945	1615	10.8945
1616			10.90125	1616	10.90125
1617			10.908	1617	10.908
1618			10.91475	1618	10.91475
1619			10.9215	1619	10.9215
1620			10.92825	1620	10.92825
1621			10.935	1621	10.935
1622			10.94175	1622	10.94175
1623			10.9485	1623	10.9485
1624			10.95525	1624	10.95525
1625			10.962	1625	10.962
1626			10.96875	1626	10.96875
1627			10.9755	1627	10.9755
1628			10.98225	1628	10.98225
1629			10.989	1629	10.989
1630			10.99575	1630	10.99575
1631			11.0025	1631	11.0025
1632			11.00925	1632	11.00925
1633			11.016	1633	11.016
1634			11.02275	1634	11.02275
1635			11.0295	1635	11.0295
1636			11.03625	1636	11.03625
1637			11.043	1637	11.043
1638			11.04975	1638	11.04975
1639			11.0565	1639	11.0565
1640			11.06325	1640	11.06325
1641			11.07	1641	11.07
1642			11.07675	1642	11.07675
1643			11.0835	1643	11.0835
1644			11.09025	1644	11.09025
1645			11.097	1645	11.097
1646			11.10375	1646	11.10375
1647			11.1105	1647	11.1105
1648			11.11725	1648	11.11725
1649			11.124	1649	11.124
1650			11.13075	1650	11.13075
1651			11.1375	1651	11.1375
1652			11.14425	1652	11.14425
1653			11.151	1653	11.151
1654			11.15775	1654	11.15775
1655			11.1645	1655	11.1645
1656			11.17125	1656	11.17125
1657			11.178	1657	11.178
1658			11.18475	1658	11.18475
1659			11.1915	1659	11.1915
1660			11.19825	1660	11.19825
1661			11.205	1661	11.205
1662			11.21175	1662	11.21175
1663			11.2185	1663	11.2185
1664			11.22525	1664	11.22525
1665			11.232	1665	11.232
1666			11.23875	1666	11.23875
1667			11.2455	1667	11.2455
1668			11.25225	1668	11.25225
1669			11.259	1669	11.259
1670			11.26575	1670	11.26575
1671			11.2725	1671	11.2725
1672			11.27925	1672	11.27925
1673			11.286	1673	11.286
1674			11.29275	1674	11.29275
1675			11.2995	1675	11.2995
1676			11.30625	1676	11.30625
1677			11.313	1677	11.313
1678			11.31975	1678	11.31975
1679			11.3265	1679	11.3265
1680			11.33325	1680	11.33325
1681			11.34	1681	11.34
1682			11.34675	1682	11.34675
1683			11.3535	1683	11.3535
1684			11.36025	1684	11.36025
1685			11.367	1685	11.367
1686			11.37375	1686	11.37375
1687			11.3805	1687	11.3805
1688			11.38725	1688	11.38725
1689			11.394	1689	11.394
1690			11.40075	1690	11.40075
1691			11.4075	1691	11.4075
1692			11.41425	1692	11.41425
1693			11.421	1693	11.421
1694			11.42775	1694	11.42775
1695			11.4345	1695	11.4345
1696			11.44125	1696	11.44125
1697			11.448	1697	11.448
1698			11.45475	1698	11.45475
1699			11.4615	1699	11.4615
1700			11.46825	1700	11.46825
1701			11.475	1701	11.475
1702			11.48175	1702	11.48175
1703			11.4885	1703	11.4885
1704			11.49525	1704	11.49525
1705			11.502	1705	11.502
1706			11.50875	1706	11.50875
1707			11.5155	1707	11.5155
1708			11.52225	1708	11.52225
1709			11.529	1709	11.529
1710			11.53575	1710	11.53575
1711			11.5425	1711	11.5425
1712			11.54925	1712	11.54925
1713			11.556	1713	11.556
1714			11.56275	1714	11.56275
1715			11.5695	1715	11.5695
1716			11.57625	1716	11.57625
1717			11.583	1717	11.583
1718			11.58975	1718	11.58975
1719			11.5965	1719	11.5965
1720			11.603251	1720	11.603251
1721			11.61	1721	11.61
1722			11.61675	1722	11.61675
1723			11.6235	1723	11.6235
1724			11.63025	1724	11.63025
1725			11.637	1725	11.637
1726			11.64375	1726	11.64375
1727			11.6505	1727	11.6505
1728			11.65725	1728	11.65725
1729			11.664001	1729	11.664001
1730			11.67075	1730	11.67075
1731			11.6775	1731	11.6775
1732			11.68425	1732	11.68425
1733			11.691	1733	11.691
1734			11.69775	1734	11.69775
1735			11.7045	1735	11.7045
1736			11.71125	1736	11.71125
1737			11.718	1737	11.718
1738			11.724751	1738	11.724751
1739			11.7315	1739	11.7315
1740			11.73825	1740	11.73825
1741			11.745	1741	11.745
1742			11.75175	1742	11.75175
1743			11.7585	1743	11.7585
1744			11.76525	1744	11.76525
1745			11.772	1745	11.772
1746			11.77875	1746	11.77875
1747			11.7855	1747	11.7855
1748			11.79225	1748	11.79225
1749			11.799	1749	11.799
1750			11.80575	1750	11.80575
1751			11.8125	1751	11.8125
1752			11.81925	1752	11.81925
1753			11.826	1753	11.826
1754			11.83275	1754	11.83275
1755			11.8395	1755	11.8395
1756			11.84625	1756	11.84625
1757			11.853	1757	11.853
1758			11.85975	1758	11.85975
1759			11.8665	1759	11.8665
1760			11.87325	1760	11.87325
1761			11.88	1761	11.88
1762			11.88675	1762	11.88675
1763			11.8935	1763	11.8935
1764			11.90025	1764	11.90025
1765			11.907	1765	11.907
1766			11.91375	1766	11.91375
1767			11.9205	1767	11.9205
1768			11.92725	1768	11.92725
1769			11.934	1769	11.934
1770			11.94075	1770	11.94075
1771			11.9475	1771	11.9475
1772			11.95425	1772	11.95425
1773			11.961	1773	11.961
1774			11.96775	1774	11.96775
1775			11.9745	1775	11.9745
1776			11.98125	1776	11.98125
1777			11.988	1777	11.988
1778			11.99475	1778	11.99475
1779			12.0015	1779	12.0015
1780			12.00825	1780	12.00825
1781			12.015	1781	12.015
1782			12.02175	1782	12.02175
1783			12.0285	1783	12.0285
1784			12.03525	1784	12.03525
1785			12.042	1785	12.042
1786			12.04875	1786	12.04875
1787			12.0555	1787	12.0555
1788			12.06225	1788	12.06225
1789			12.069	1789	12.069
1790			12.07575	1790	12.07575
1791			12.0825	1791	12.0825
1792			12.08925	1792	12.08925
1793			12.096	1793	12.096
1794			12.10275	1794	12.10275
1795			12.1095	1795	12.1095
1796			12.11625	1796	12.11625
1797			12.123	1797	12.123
1798			12.12975	1798	12.12975
1799			12.1365	1799	12.1365
1800			12.14325	1800	12.14325
1801			12.15	1801	12.15
1802			12.15675	1802	12.15675
1803			12.1635	1803	12.1635
1804			12.17025	1804	12.17025
1805			12.177	1805	12.177
1806			12.18375	1806	12.18375
1807			12.1905	1807	12.1905
1808			12.19725	1808	12.19725
1809			12.204	1809	12.204
1810			12.21075	1810	12.21075
1811			12.2175	1811	12.2175
1812			12.22425	1812	12.22425
1813			12.231	1813	12.231
1814			12.23775	1814	12.23775
1815			12.2445	1815	12.2445
1816			12.25125	1816	12.25125
1817			12.258	1817	12.258
1818			12.26475	1818	12.26475
1819			12.2715	1819	12.2715
1820			12.27825	1820	12.27825
1821			12.285	1821	12.285
1822			12.29175	1822	12.29175
1823			12.2985	1823	12.2985
1824			12.30525	1824	12.30525
1825			12.312	1825	12.312
1826			12.31875	1826	12.31875
1827			12.3255	1827	12.3255
1828			12.33225	1828	12.33225
1829			12.339	1829	12.339
1830			12.34575	1830	12.34575
1831			12.3525	1831	12.3525
1832			12.35925	1832	12.35925
1833			12.366	1833	12.366
1834			12.37275	1834	12.37275
1835			12.3795	1835	12.3795
1836			12.38625	1836	12.38625
1837			12.393	1837	12.393
1838			12.39975	1838	12.39975
1839			12.4065	1839	12.4065
1840			12.41325	1840	12.41325
1841			12.42	1841	12.42
1842			12.42675	1842	12.42675
1843			12.4335	1843	12.4335
1844			12.44025	1844	12.44025
1845			12.447001	1845	12.447001
1846			12.45375	1846	12.45375
1847			12.4605	1847	12.4605
1848			12.46725	1848	12.46725
1849			12.474	1849	12.474
1850			12.48075	1850	12.48075
1851			12.4875	1851	12.4875
1852			12.49425	1852	12.49425
1853			12.501	1853	12.501
1854			12.507751	1854	12.507751
1855			12.5145	1855	12.5145
1856			12.52125	1856	12.52125
1857			12.528	1857	12.528
1858			12.53475	1858	12.53475
1859			12.5415	1859	12.5415
1860			12.54825	1860	12.54825
1861			12.555	1861	12.555
1862			12.56175	1862	12.56175
1863			12.568501	1863	12.568501
1864			12.57525	1864	12.57525
1865			12.582	1865	12.582
1866			12.58875	1866	12.58875
1867			12.5955	1867	12.5955
1868			12.60225	1868	12.60225
1869			12.609	1869	12.609
1870			12.61575	1870	12.61575
1871			12.6225	1871	12.6225
1872			12.62925	1872	12.62925
1873			12.636	1873	12.636
1874			12.64275	1874	12.64275
1875			12.6495	1875	12.6495
1876			12.65625	1876	12.65625
1877			12.663	1877	12.663
1878			12.66975	1878	12.66975
1879			12.6765	1879	12.6765
1880			12.68325	1880	12.68325
1881			12.69	1881	12.69
1882			12.69675	1882	12.69675
1883			12.7035	1883	12.7035
1884			12.71025	1884	12.71025
1885			12.717	1885	12.717
1886			12.72375	1886	12.72375
1887			12.7305	1887	12.7305
1888			12.73725	1888	12.73725
1889			12.744	1889	12.744
1890			12.75075	1890	12.75075
1891			12.7575	1891	12.7575
1892			12.76425	1892	12.76425
1893			12.771	1893	12.771
1894			12.77775	1894	12.77775
1895			12.7845	1895	12.7845
1896			12.79125	1896	12.79125
1897			12.798	1897	12.798
1898			12.80475	1898	12.80475
1899			12.8115	1899	12.8115
1900			12.81825	1900	12.81825
1901			12.825	1901	12.825
1902			12.83175	1902	12.83175
1903			12.8385	1903	12.8385
1904			12.84525	1904	12.84525
1905			12.852	1905	12.852
1906			12.85875	1906	12.85875
1907			12.8655	1907	12.8655
1908			12.87225	1908	12.87225
1909			12.879	1909	12.879
1910			12.88575	1910	12.88575
1911			12.8925	1911	12.8925
1912			12.89925	1912	12.89925
1913			12.906	1913	12.906
1914			12.91275	1914	12.91275
1915			12.9195	1915	12.9195
1916			12.92625	1916	12.92625
1917			12.933	1917	12.933
1918			12.93975	1918	12.93975
1919			12.9465	1919	12.9465
1920			12.95325	1920	12.95325
1921			12.96	1921	12.96
1922			12.96675	1922	12.96675
1923			12.9735	1923	12.9735
1924			12.98025	1924	12.98025
1925			12.987	1925	12.987
1926			12.99375	1926	12.99375
1927			13.0005	1927	13.0005
1928			13.00725	1928	13.00725
1929			13.014	1929	13.014
1930			13.02075	1930	13.02075
1931			13.0275	1931	13.0275
1932			13.03425	1932	13.03425
1933			13.041	1933	13.041
1934			13.04775	1934	13.04775
1935			13.0545	1935	13.0545
1936			13.06125	1936	13.06125
1937			13.068	1937	13.068
1938			13.07475	1938	13.07475
1939			13.0815	1939	13.0815
1940			13.08825	1940	13.08825
1941			13.095	1941	13.095
1942			13.10175	1942	13.10175
1943			13.1085	1943	13.1085
1944			13.11525	1944	13.11525
1945			13.122	1945	13.122
1946			13.12875	1946	13.12875
1947			13.1355	1947	13.1355
1948			13.14225	1948	13.14225
1949			13.149	1949	13.149
1950			13.15575	1950	13.15575
1951			13.1625	1951	13.1625
1952			13.16925	1952	13.16925
1953			13.176	1953	13.176
1954			13.18275	1954	13.18275
1955			13.1895	1955	13.1895
1956			13.19625	1956	13.19625
1957			13.203	1957	13.203
1958			13.20975	1958	13.20975
1959			13.2165	1959	13.2165
1960			13.22325	1960	13.22325
1961			13.23	1961	13.23
1962			13.23675	1962	13.23675
1963			13.2435	1963	13.2435
1964			13.25025	1964	13.25025
1965			13.257	1965	13.257
1966			13.26375	1966	13.26375
1967			13.2705	1967	13.2705
1968			13.27725	1968	13.27725
1969			13.284	1969	13.284
1970			13.290751	1970	13.290751
1971			13.2975	1971	13.2975
1972			13.30425	1972	13.30425
1973			13.311	1973	13.311
1974			13.31775	1974	13.31775
1975			13.3245	1975	13.3245
1976			13.33125	1976	13.33125
1977			13.338	1977	13.338
1978			13.34475	1978	13.34475
1979			13.351501	1979	13.351501
1980			13.35825	1980	13.35825
1981			13.365	1981	13.365
1982			13.37175	1982	13.37175
1983			13.3785	1983	13.3785
1984			13.38525	1984	13.38525
1985			13.392	1985	13.392
1986			13.39875	1986	13.39875
1987			13.4055	1987	13.4055
1988			13.412251	1988	13.412251
1989			13.419	1989	13.419
1990			13.42575	1990	13.42575
1991			13.4325	1991	13.4325
1992			13.43925	1992	13.43925
1993			13.446	1993	13.446
1994			13.45275	1994	13.45275
1995			13.4595	1995	13.4595
1996			13.46625	1996	13.46625
1997			13.473001	1997	13.473001
1998			13.47975	1998	13.47975
1999			13.4865	1999	13.4865
2000			13.49325	2000	13.49325
2001			13.5	2001	13.5
2002			13.50675	2002	13.50675
2003			13.5135	2003	13.5135
2004			13.52025	2004	13.52025
2005			13.527	2005	13.527
2006			13.53375	2006	13.53375
2007			13.5405	2007	13.5405
2008			13.54725	2008	13.54725
2009			13.554	2009	13.554
2010			13.56075	2010	13.56075
2011			13.5675	2011	13.5675
2012			13.57425	2012	13.57425
2013			13.581	2013	13.581
2014			13.58775	2014	13.58775
2015			13.5945	2015	13.5945
2016			13.60125	2016	13.60125
2017			13.608	2017	13.608
2018			13.61475	2018	13.61475
2019			13.6215	2019	13.6215
2020			13.62825	2020	13.62825
2021			13.635	2021	13.635
2022			13.64175	2022	13.64175
2023			13.6485	2023	13.6485
2024			13.65525	2024	13.65525
2025			13.662	2025	13.662
2026			13.66875	2026	13.66875
2027			13.6755	2027	13.6755
2028			13.68225	2028	13.68225
2029			13.689	2029	13.689
2030			13.69575	2030	13.69575
2031			13.7025	2031	13.7025
2032			13.70925	2032	13.70925
2033			13.716	2033	13.716
2034			13.72275	2034	13.72275
2035			13.7295	2035	13.7295
2036			13.73625	2036	13.73625
2037			13.743	2037	13.743
2038			13.74975	2038	13.74975
2039			13.7565	2039	13.7565
2040			13.76325	2040	13.76325
2041			13.77	2041	13.77
2042			13.77675	2042	13.77675
2043			13.7835	2043	13.7835
2044			13.79025	2044	13.79025
2045			13.797	2045	13.797
2046			13.80375	2046	13.80375
2047			13.8105	2047	13.8105
2048			13.81725	2048	13.81725
2049			13.824	2049	13.824
2050			13.83075	2050	13.83075
2051			13.8375	2051	13.8375
2052			13.84425	2052	13.84425
2053			13.851	2053	13.851
2054			13.85775	2054	13.85775
2055			13.8645	2055	13.8645
2056			13.87125	2056	13.87125
2057			13.878	2057	13.878
2058			13.88475	2058	13.88475
2059			13.8915	2059	13.8915
2060			13.89825	2060	13.89825
2061			13.905	2061	13.905
2062			13.91175	2062	13.91175
2063			13.9185	2063	13.9185
2064			13.92525	2064	13.92525
2065			13.932	2065	13.932
2066			13.93875	2066	13.93875
2067			13.9455	2067	13.9455
2068			13.95225	2068	13.95225
2069			13.959	2069	13.959
2070			13.96575	2070	13.96575
2071			13.9725	2071	13.9725
2072			13.97925	2072	13.97925
2073			13.986	2073	13.986
2074			13.99275	2074	13.99275
2075			13.9995	2075	13.9995
2076			14.00625	2076	14.00625
2077			14.013	2077	14.013
2078			14.01975	2078	14.01975
2079			14.0265	2079	14.0265
2080			14.03325	2080	14.03325
2081			14.04	2081	14.04
2082			14.04675	2082	14.04675
2083			14.0535	2083	14.0535
2084			14.06025	2084	14.06025
2085			14.067	2085	14.067
2086			14.07375	2086	14.07375
2087			14.0805	2087	14.0805
2088			14.08725	2088	14.08725
2089			14.094	2089	14.094
2090			14.10075	2090	14.10075
2091			14.1075	2091	14.1075
2092			14.11425	2092	14.11425
2093			14.121	2093	14.121
2094			14.12775	2094	14.12775
2095			14.134501	2095	14.134501
2096			14.14125	2096	14.14125
2097			14.148	2097	14.148
2098			14.15475	2098	14.15475
2099			14.1615	2099	14.1615
2100			14.16825	2100	14.16825
2101			14.175	2101	14.175
2102			14.18175	2102	14.18175
2103			14.1885	2103	14.1885
2104			14.195251	2104	14.195251
2105			14.202	2105	14.202
2106			14.20875	2106	14.20875
2107			14.2155	2107	14.2155
2108			14.22225	2108	14.22225
2109			14.229	2109	14.229
2110			14.23575	2110	14.23575
2111			14.2425	2111	14.2425
2112			14.24925	2112	14.24925
2113			14.256001	2113	14.256001
2114			14.26275	2114	14.26275
2115			14.2695	2115	14.2695
2116			14.27625	2116	14.27625
2117			14.283	2117	14.283
2118			14.28975	2118	14.28975
2119			14.2965	2119	14.2965
2120			14.30325	2120	14.30325
2121			14.31	2121	14.31
2122			14.316751	2122	14.316751
2123			14.3235	2123	14.3235
2124			14.33025	2124	14.33025
2125			14.337	2125	14.337
2126			14.34375	2126	14.34375
2127			14.3505	2127	14.3505
2128			14.35725	2128	14.35725
2129			14.364	2129	14.364
2130			14.37075	2130	14.37075
2131			14.3775	2131	14.3775
2132			14.38425	2132	14.38425
2133			14.391	2133	14.391
2134			14.39775	2134	14.39775
2135			14.4045	2135	14.4045
2136			14.41125	2136	14.41125
2137			14.418	2137	14.418
2138			14.42475	2138	14.42475
2139			14.4315	2139	14.4315
2140			14.43825	2140	14.43825
2141			14.445	2141	14.445
2142			14.45175	2142	14.45175
2143			14.4585	2143	14.4585
2144			14.46525	2144	14.46525
2145			14.472	2145	14.472
2146			14.47875	2146	14.47875
2147			14.4855	2147	14.4855
2148			14.49225	2148	14.49225
2149			14.499	2149	14.499
2150			14.50575	2150	14.50575
2151			14.5125	2151	14.5125
2152			14.51925	2152	14.51925
2153			14.526	2153	14.526
2154			14.53275	2154	14.53275
2155			14.5395	2155	14.5395
2156			14.54625	2156	14.54625
2157			14.553	2157	14.553
2158			14.55975	2158	14.55975
2159			14.5665	2159	14.5665
2160			14.57325	2160	14.57325
2161			14.58	2161	14.58
2162			14.58675	2162	14.58675
2163			14.5935	2163	14.5935
2164			14.60025	2164	14.60025
2165			14.607	2165	14.607
2166			14.61375	2166	14.61375
2167			14.6205	2167	14.6205
2168			14.62725	2168	14.62725
2169			14.634	2169	14.634
2170			14.64075	2170	14.64075
2171			14.6475	2171	14.6475
2172			14.65425	2172	14.65425
2173			14.661	2173	14.661
2174			14.66775	2174	14.66775
2175			14.6745	2175	14.6745
2176			14.68125	2176	14.68125
2177			14.688	2177	14.688
2178			14.69475	2178	14.69475
2179			14.7015	2179	14.7015
2180			14.70825	2180	14.70825
2181			14.715	2181	14.715
2182			14.72175	2182	14.72175
2183			14.7285	2183	14.7285
2184			14.73525	2184	14.73525
2185			14.742	2185	14.742
2186			14.74875	2186	14.74875
2187			14.7555	2187	14.7555
2188			14.76225	2188	14.76225
2189			14.769	2189	14.769
2190			14.77575	2190	14.77575
2191			14.7825	2191	14.7825
2192			14.78925	2192	14.78925
2193			14.796	2193	14.796
2194			14.80275	2194	14.80275
2195			14.8095	2195	14.8095
2196			14.81625	2196	14.81625
2197			14.823	2197	14.823
2198			14.82975	2198	14.82975
2199			14.8365	2199	14.8365
2200			14.84325	2200	14.84325
2201			14.85	2201	14.85
2202			14.85675	2202	14.85675
2203			14.8635	2203	14.8635
2204			14.87025	2204	14.87025
2205			14.877	2205	14.877
2206			14.88375	2206	14.88375
2207			14.8905	2207	14.8905
2208			14.89725	2208	14.89725
2209			14.904	2209	14.904
2210			14.91075	2210	14.91075
2211			14.9175	2211	14.9175
2212			14.92425	2212	14.92425
2213			14.931	2213	14.931
2214			14.93775	2214	14.93775
2215			14.9445	2215	14.9445
2216			14.95125	2216	14.95125
2217			14.958	2217	14.958
2218			14.96475	2218	14.96475
2219			14.9715	2219	14.9715
2220			14.978251	2220	14.978251
2221			14.985	2221	14.985
2222			14.99175	2222	14.99175
2223			14.9985	2223	14.9985
2224			15.00525	2224	15.00525
2225			15.012	2225	15.012
2226			15.01875	2226	15.01875
2227			15.0255	2227	15.0255
2228			15.03225	2228	15.03225
2229			15.039001	2229	15.039001
2230			15.04575	2230	15.04575
2231			15.0525	2231	15.0525
2232			15.05925	2232	15.05925
2233			15.066	2233	15.066
2234			15.07275	2234	15.07275
2235			15.0795	2235	15.0795
2236			15.08625	2236	15.08625
2237			15.093	2237	15.093
2238			15.099751	2238	15.099751
2239			15.1065	2239	15.1065
2240			15.11325	2240	15.11325
2241			15.12	2241	15.12
2242			15.12675	2242	15.12675
2243			15.1335	2243	15.1335
2244			15.14025	2244	15.14025
2245			15.147	2245	15.147
2246			15.15375	2246	15.15375
2247			15.160501	2247	15.160501
2248			15.16725	2248	15.16725
2249			15.174	2249	15.174
2250			15.18075	2250	15.18075
2251			15.1875	2251	15.1875
2252			15.19425	2252	15.19425
2253			15.201	2253	15.201
2254			15.20775	2254	15.20775
2255			15.2145	2255	15.2145
2256			15.221251	2256	15.221251
2257			15.228	2257	15.228
2258			15.23475	2258	15.23475
2259			15.2415	2259	15.2415
2260			15.24825	2260	15.24825
2261			15.255	2261	15.255
2262			15.26175	2262	15.26175
2263			15.2685	2263	15.2685
2264			15.27525	2264	15.27525
2265			15.282	2265	15.282
2266			15.28875	2266	15.28875
2267			15.2955	2267	15.2955
2268			15.30225	2268	15.30225
2269			15.309	2269	15.309
2270			15.31575	2270	15.31575
2271			15.3225	2271	15.3225
2272			15.32925	2272	15.32925
2273			15.336	2273	15.336
2274			15.34275	2274	15.34275
2275			15.3495	2275	15.3495
2276			15.35625	2276	15.35625
2277			15.363	2277	15.363
2278			15.36975	2278	15.36975
2279			15.3765	2279	15.3765
2280			15.38325	2280	15.38325
2281			15.39	2281	15.39
2282			15.39675	2282	15.39675
2283			15.4035	2283	15.4035
2284			15.41025	2284	15.41025
2285			15.417	2285	15.417
2286			15.42375	2286	15.42375
2287			15.4305	2287	15.4305
2288			15.43725	2288	15.43725
2289			15.444	2289	15.444
2290			15.45075	2290	15.45075
2291			15.4575	2291	15.4575
2292			15.46425	2292	15.46425
2293			15.471	2293	15.471
2294			15.47775	2294	15.47775
2295			15.4845	2295	15.4845
2296			15.49125	2296	15.49125
2297			15.498	2297	15.498
2298			15.50475	2298	15.50475
2299			15.5115	2299	15.5115
2300			15.51825	2300	15.51825
2301			15.525	2301	15.525
2302			15.53175	2302	15.53175
2303			15.5385	2303	15.5385
2304			15.54525	2304	15.54525
2305			15.552	2305	15.552
2306			15.55875	2306	15.55875
2307			15.5655	2307	15.5655
2308			15.57225	2308	15.57225
2309			15.579	2309	15.579
2310			15.58575	2310	15.58575
2311			15.5925	2311	15.5925
2312			15.59925	2312	15.59925
2313			15.606	2313	15.606
2314			15.61275	2314	15.61275
2315			15.6195	2315	15.6195
2316			15.62625	2316	15.62625
2317			15.633	2317	15.633
2318			15.63975	2318	15.63975
2319			15.6465	2319	15.6465
2320			15.65325	2320	15.65325
2321			15.66	2321	15.66
2322			15.66675	2322	15.66675
2323			15.6735	2323	15.6735
2324			15.68025	2324	15.68025
2325			15.687	2325	15.687
2326			15.69375	2326	15.69375
2327			15.7005	2327	15.7005
2328			15.70725	2328	15.70725
2329			15.714	2329	15.714
2330			15.72075	2330	15.72075
2331			15.7275	2331	15.7275
2332			15.73425	2332	15.73425
2333			15.741	2333	15.741
2334			15.74775	2334	15.74775
2335			15.7545	2335	15.7545
2336			15.76125	2336	15.76125
2337			15.768	2337	15.768
2338			15.77475	2338	15.77475
2339			15.7815	2339	15.7815
2340			15.78825	2340	15.78825
2341			15.795	2341	15.795
2342			15.80175	2342	15.80175
2343			15.8085	2343	15.8085
2344			15.81525	2344	15.81525
2345			15.822001	2345	15.822001
2346			15.82875	2346	15.82875
2347			15.8355	2347	15.8355
2348			15.84225	2348	15.84225
2349			15.849	2349	15.849
2350			15.85575	2350	15.85575
2351			15.8625	2351	15.8625
2352			15.86925	2352	15.86925
2353			15.876	2353	15.876
2354			15.882751	2354	15.882751
2355			15.8895	2355	15.8895
2356			15.89625	2356	15.89625
2357			15.903	2357	15.903
2358			15.90975	2358	15.90975
2359			15.9165	2359	15.9165
2360			15.92325	2360	15.92325
2361			15.93	2361	15.93
2362			15.93675	2362	15.93675
2363			15.943501	2363	15.943501
2364			15.95025	2364	15.95025
2365			15.957	2365	15.957
2366			15.96375	2366	15.96375
2367			15.9705	2367	15.9705
2368			15.97725	2368	15.97725
2369			15.984	2369	15.984
2370			15.99075	2370	15.99075
2371			15.9975	2371	15.9975
2372			16.00425	2372	16.00425
2373			16.011	2373	16.011
2374			16.01775	2374	16.01775
2375			16.0245	2375	16.0245
2376			16.03125	2376	16.03125
2377			16.038	2377	16.038
2378			16.04475	2378	16.04475
2379			16.0515	2379	16.0515
2380			16.05825	2380	16.05825
2381			16.065001	2381	16.065001
2382			16.071751	2382	16.071751
2383			16.078501	2383	16.078501
2384			16.085251	2384	16.085251
2385			16.092001	2385	16.092001
2386			16.098749	2386	16.098749
2387			16.105499	2387	16.105499
2388			16.112249	2388	16.112249
2389			16.118999	2389	16.118999
2390			16.12575	2390	16.12575
2391			16.1325	2391	16.1325
2392			16.13925	2392	16.13925
2393			16.146	2393	16.146
2394			16.15275	2394	16.15275
2395			16.1595	2395	16.1595
2396			16.16625	2396	16.16625
2397			16.173	2397	16.173
2398			16.17975	2398	16.17975
2399			16.186501	2399	16.186501
2400			16.193251	2400	16.193251
2401			16.200001	2401	16.200001
2402			16.206751	2402	16.206751
2403			16.213501	2403	16.213501
2404			16.220249	2404	16.220249
2405			16.226999	2405	16.226999
2406			16.233749	2406	16.233749
2407			16.240499	2407	16.240499
2408			16.24725	2408	16.24725
2409			16.254	2409	16.254
2410			16.26075	2410	16.26075
2411			16.2675	2411	16.2675
2412			16.27425	2412	16.27425
2413			16.281	2413	16.281
2414			16.28775	2414	16.28775
2415			16.2945	2415	16.2945
2416			16.30125	2416	16.30125
2417			16.308001	2417	16.308001
2418			16.314751	2418	16.314751
2419			16.321501	2419	16.321501
2420			16.328251	2420	16.328251
2421			16.335001	2421	16.335001
2422			16.341749	2422	16.341749
2423			16.348499	2423	16.348499
2424			16.355249	2424	16.355249
2425			16.362	2425	16.362
2426			16.36875	2426	16.36875
2427			16.3755	2427	16.3755
2428			16.38225	2428	16.38225
2429			16.389	2429	16.389
2430			16.39575	2430	16.39575
2431			16.4025	2431	16.4025
2432			16.40925	2432	16.40925
2433			16.416	2433	16.416
2434			16.42275	2434	16.42275
2435			16.429501	2435	16.429501
2436			16.436251	2436	16.436251
2437			16.443001	2437	16.443001
2438			16.449751	2438	16.449751
2439			16.456501	2439	16.456501
2440			16.463249	2440	16.463249
2441			16.469999	2441	16.469999
2442			16.476749	2442	16.476749
2443			16.4835	2443	16.4835
2444			16.49025	2444	16.49025
2445			16.497	2445	16.497
2446			16.50375	2446	16.50375
2447			16.5105	2447	16.5105
2448			16.51725	2448	16.51725
2449			16.524	2449	16.524
2450			16.53075	2450	16.53075
2451			16.5375	2451	16.5375
2452			16.54425	2452	16.54425
2453			16.551001	2453	16.551001
2454			16.557751	2454	16.557751
2455			16.564501	2455	16.564501
2456			16.571251	2456	16.571251
2457			16.577999	2457	16.577999
2458			16.584749	2458	16.584749
2459			16.591499	2459	16.591499
2460			16.598249	2460	16.598249
2461			16.605	2461	16.605
2462			16.61175	2462	16.61175
2463			16.6185	2463	16.6185
2464			16.62525	2464	16.62525
2465			16.632	2465	16.632
2466			16.63875	2466	16.63875
2467			16.6455	2467	16.6455
2468			16.65225	2468	16.65225
2469			16.659	2469	16.659
2470			16.665751	2470	16.665751
2471			16.672501	2471	16.672501
2472			16.679251	2472	16.679251
2473			16.686001	2473	16.686001
2474			16.692751	2474	16.692751
2475			16.699499	2475	16.699499
2476			16.706249	2476	16.706249
2477			16.712999	2477	16.712999
2478			16.719749	2478	16.719749
2479			16.7265	2479	16.7265
2480			16.73325	2480	16.73325
2481			16.74	2481	16.74
2482			16.74675	2482	16.74675
2483			16.7535	2483	16.7535
2484			16.76025	2484	16.76025
2485			16.767	2485	16.767
2486			16.77375	2486	16.77375
2487			16.7805	2487	16.7805
2488			16.787251	2488	16.787251
2489			16.794001	2489	16.794001
2490			16.800751	2490	16.800751
2491			16.807501	2491	16.807501
2492			16.814251	2492	16.814251
2493			16.820999	2493	16.820999
2494			16.827749	2494	16.827749
2495			16.834499	2495	16.834499
2496			16.841249	2496	16.841249
2497			16.848	2497	16.848
2498			16.85475	2498	16.85475
2499			16.8615	2499	16.8615
2500			16.86825	2500	16.86825
2501			16.875	2501	16.875
2502			16.88175	2502	16.88175
2503			16.8885	2503	16.8885
2504			16.89525	2504	16.89525
2505			16.902	2505	16.902
2506			16.908751	2506	16.908751
2507			16.915501	2507	16.915501
2508			16.922251	2508	16.922251
2509			16.929001	2509	16.929001
2510			16.935751	2510	16.935751
2511			16.942499	2511	16.942499
2512			16.949249	2512	16.949249
2513			16.955999	2513	16.955999
2514			16.962749	2514	16.962749
2515			16.9695	2515	16.9695
2516			16.97625	2516	16.97625
2517			16.983	2517	16.983
2518			16.98975	2518	16.98975
2519			16.9965	2519	16.9965
2520			17.00325	2520	17.00325
2521			17.01	2521	17.01
2522			17.01675	2522	17.01675
2523			17.0235	2523	17.0235
2524			17.030251	2524	17.030251
2525			17.037001	2525	17.037001
2526			17.043751	2526	17.043751
2527			17.050501	2527	17.050501
2528			17.057251	2528	17.057251
2529			17.063999	2529	17.063999
2530			17.070749	2530	17.070749
2531			17.077499	2531	17.077499
2532			17.084249	2532	17.084249
2533			17.091	2533	17.091
2534			17.09775	2534	17.09775
2535			17.1045	2535	17.1045
2536			17.11125	2536	17.11125
2537			17.118	2537	17.118
2538			17.12475	2538	17.12475
2539			17.1315	2539	17.1315
2540			17.13825	2540	17.13825
2541			17.145	2541	17.145
2542			17.151751	2542	17.151751
2543			17.158501	2543	17.158501
2544			17.165251	2544	17.165251
2545			17.172001	2545	17.172001
2546			17.178751	2546	17.178751
2547			17.185499	2547	17.185499
2548			17.192249	2548	17.192249
2549			17.198999	2549	17.198999
2550			17.20575	2550	17.20575
2551			17.2125	2551	17.2125
2552			17.21925	2552	17.21925
2553			17.226	2553	17.226
2554			17.23275	2554	17.23275
2555			17.2395	2555	17.2395
2556			17.24625	2556	17.24625
2557			17.253	2557	17.253
2558			17.25975	2558	17.25975
2559			17.2665	2559	17.2665
2560			17.273251	2560	17.273251
2561			17.280001	2561	17.280001
2562			17.286751	2562	17.286751
2563			17.293501	2563	17.293501
2564			17.300251	2564	17.300251
2565			17.306999	2565	17.306999
2566			17.313749	2566	17.313749
2567			17.320499	2567	17.320499
2568			17.32725	2568	17.32725
2569			17.334	2569	17.334
2570			17.34075	2570	17.34075
2571			17.3475	2571	17.3475
2572			17.35425	2572	17.35425
2573			17.361	2573	17.361
2574			17.36775	2574	17.36775
2575			17.3745	2575	17.3745
2576			17.38125	2576	17.38125
2577			17.388	2577	17.388
2578			17.394751	2578	17.394751
2579			17.401501	2579	17.401501
2580			17.408251	2580	17.408251
2581			17.415001	2581	17.415001
2582			17.421749	2582	17.421749
2583			17.428499	2583	17.428499
2584			17.435249	2584	17.435249
2585			17.441999	2585	17.441999
2586			17.44875	2586	17.44875
2587			17.4555	2587	17.4555
2588			17.46225	2588	17.46225
2589			17.469	2589	17.469
2590			17.47575	2590	17.47575
2591			17.4825	2591	17.4825
2592			17.48925	2592	17.48925
2593			17.496	2593	17.496
2594			17.50275	2594	17.50275
2595			17.509501	2595	17.509501
2596			17.516251	2596	17.516251
2597			17.523001	2597	17.523001
2598			17.529751	2598	17.529751
2599			17.536501	2599	17.536501
2600			17.543249	2600	17.543249
2601			17.549999	2601	17.549999
2602			17.556749	2602	17.556749
2603			17.563499	2603	17.563499
2604			17.57025	2604	17.57025
2605			17.577	2605	17.577
2606			17.58375	2606	17.58375
2607			17.5905	2607	17.5905
2608			17.59725	2608	17.59725
2609			17.604	2609	17.604
2610			17.61075	2610	17.61075
2611			17.6175	2611	17.6175
2612			17.62425	2612	17.62425
2613			17.631001	2613	17.631001
2614			17.637751	2614	17.637751
2615			17.644501	2615	17.644501
2616			17.651251	2616	17.651251
2617			17.658001	2617	17.658001
2618			17.664749	2618	17.664749
2619			17.671499	2619	17.671499
2620			17.678249	2620	17.678249
2621			17.684999	2621	17.684999
2622			17.69175	2622	17.69175
2623			17.6985	2623	17.6985
2624			17.70525	2624	17.70525
2625			17.712	2625	17.712
2626			17.71875	2626	17.71875
2627			17.7255	2627	17.7255
2628			17.73225	2628	17.73225
2629			17.739	2629	17.739
2630			17.74575	2630	17.74575
2631			17.752501	2631	17.752501
2632			17.759251	2632	17.759251
2633			17.766001	2633	17.766001
2634			17.772751	2634	17.772751
2635			17.779501	2635	17.779501
2636			17.786249	2636	17.786249
2637			17.792999	2637	17.792999
2638			17.799749	2638	17.799749
2639			17.806499	2639	17.806499
2640			17.81325	2640	17.81325
2641			17.82	2641	17.82
2642			17.82675	2642	17.82675
2643			17.8335	2643	17.8335
2644			17.84025	2644	17.84025
2645			17.847	2645	17.847
2646			17.85375	2646	17.85375
2647			17.8605	2647	17.8605
2648			17.86725	2648	17.86725
2649			17.874001	2649	17.874001
2650			17.880751	2650	17.880751
2651			17.887501	2651	17.887501
2652			17.894251	2652	17.894251
2653			17.901001	2653	17.901001
2654			17.907749	2654	17.907749
2655			17.914499	2655	17.914499
2656			17.921249	2656	17.921249
2657			17.927999	2657	17.927999
2658			17.93475	2658	17.93475
2659			17.9415	2659	17.9415
2660			17.94825	2660	17.94825
2661			17.955	2661	17.955
2662			17.96175	2662	17.96175
2663			17.9685	2663	17.9685
2664			17.97525	2664	17.97525
2665			17.982	2665	17.982
2666			17.98875	2666	17.98875
2667			17.995501	2667	17.995501
2668			18.002251	2668	18.002251
2669			18.009001	2669	18.009001
2670			18.015751	2670	18.015751
2671			18.022501	2671	18.022501
2672			18.029249	2672	18.029249
2673			18.035999	2673	18.035999
2674			18.042749	2674	18.042749
2675			18.0495	2675	18.0495
2676			18.05625	2676	18.05625
2677			18.063	2677	18.063
2678			18.06975	2678	18.06975
2679			18.0765	2679	18.0765
2680			18.08325	2680	18.08325
2681			18.09	2681	18.09
2682			18.09675	2682	18.09675
2683			18.1035	2683	18.1035
2684			18.11025	2684	18.11025
2685			18.117001	2685	18.117001
2686			18.123751	2686	18.123751
2687			18.130501	2687	18.130501
2688			18.137251	2688	18.137251
2689			18.144001	2689	18.144001
2690			18.150749	2690	18.150749
2691			18.157499	2691	18.157499
2692			18.164249	2692	18.164249
2693			18.171	2693	18.171
2694			18.17775	2694	18.17775
2695			18.1845	2695	18.1845
2696			18.19125	2696	18.19125
2697			18.198	2697	18.198
2698			18.20475	2698	18.20475
2699			18.2115	2699	18.2115
2700			18.21825	2700	18.21825
2701			18.225	2701	18.225
2702			18.23175	2702	18.23175
2703			18.238501	2703	18.238501
2704			18.245251	2704	18.245251
2705			18.252001	2705	18.252001
2706			18.258751	2706	18.258751
2707			18.265501	2707	18.265501
2708			18.272249	2708	18.272249
2709			18.278999	2709	18.278999
2710			18.285749	2710	18.285749
2711			18.2925	2711	18.2925
2712			18.29925	2712	18.29925
2713			18.306	2713	18.306
2714			18.31275	2714	18.31275
2715			18.3195	2715	18.3195
2716			18.32625	2716	18.32625
2717			18.333	2717	18.333
2718			18.33975	2718	18.33975
2719			18.3465	2719	18.3465
2720			18.353251	2720	18.353251
2721			18.360001	2721	18.360001
2722			18.366751	2722	18.366751
2723			18.373501	2723	18.373501
2724			18.380251	2724	18.380251
2725			18.386999	2725	18.386999
2726			18.393749	2726	18.393749
2727			18.400499	2727	18.400499
2728			18.407249	2728	18.407249
2729			18.414	2729	18.414
2730			18.42075	2730	18.42075
2731			18.4275	2731	18.4275
2732			18.43425	2732	18.43425
2733			18.441	2733	18.441
2734			18.44775	2734	18.44775
2735			18.4545	2735	18.4545
2736			18.46125	2736	18.46125
2737			18.468	2737	18.468
2738			18.474751	2738	18.474751
2739			18.481501	2739	18.481501
2740			18.488251	2740	18.488251
2741			18.495001	2741	18.495001
2742			18.501751	2742	18.501751
2743			18.508499	2743	18.508499
2744			18.515249	2744	18.515249
2745			18.521999	2745	18.521999
2746			18.528749	2746	18.528749
2747			18.5355	2747	18.5355
2748			18.54225	2748	18.54225
2749			18.549	2749	18.549
2750			18.55575	2750	18.55575
2751			18.5625	2751	18.5625
2752			18.56925	2752	18.56925
2753			18.576	2753	18.576
2754			18.58275	2754	18.58275
2755			18.5895	2755	18.5895
2756			18.596251	2756	18.596251
2757			18.603001	2757	18.603001
2758			18.609751	2758	18.609751
2759			18.616501	2759	18.616501
2760			18.623251	2760	18.623251
2761			18.629999	2761	18.629999
2762			18.636749	2762	18.636749
2763			18.643499	2763	18.643499
2764			18.650249	2764	18.650249
2765			18.657	2765	18.657
2766			18.66375	2766	18.66375
2767			18.6705	2767	18.6705
2768			18.67725	2768	18.67725
2769			18.684	2769	18.684
2770			18.69075	2770	18.69075
2771			18.6975	2771	18.6975
2772			18.70425	2772	18.70425
2773			18.711	2773	18.711
2774			18.717751	2774	18.717751
2775			18.724501	2775	18.724501
2776			18.731251	2776	18.731251
2777			18.738001	2777	18.738001
2778			18.744751	2778	18.744751
2779			18.751499	2779	18.751499
2780			18.758249	2780	18.758249
2781			18.764999	2781	18.764999
2782			18.771749	2782	18.771749
2783			18.7785	2783	18.7785
2784			18.78525	2784	18.78525
2785			18.792	2785	18.792
2786			18.79875	2786	18.79875
2787			18.8055	2787	18.8055
2788			18.81225	2788	18.81225
2789			18.819	2789	18.819
2790			18.82575	2790	18.82575
2791			18.8325	2791	18.8325
2792			18.839251	2792	18.839251
2793			18.846001	2793	18.846001
2794			18.852751	2794	18.852751
2795			18.859501	2795	18.859501
2796			18.866251	2796	18.866251
2797			18.872999	2797	18.872999
2798			18.879749	2798	18.879749
2799			18.886499	2799	18.886499
2800			18.89325	2800	18.89325
2801			18.9	2801	18.9
2802			18.90675	2802	18.90675
2803			18.9135	2803	18.9135
2804			18.92025	2804	18.92025
2805			18.927	2805	18.927
2806			18.93375	2806	18.93375
2807			18.9405	2807	18.9405
2808			18.94725	2808	18.94725
2809			18.954	2809	18.954
2810			18.960751	2810	18.960751
2811			18.967501	2811	18.967501
2812			18.974251	2812	18.974251
2813			18.981001	2813	18.981001
2814			18.987751	2814	18.987751
2815			18.994499	2815	18.994499
2816			19.001249	2816	19.001249
2817			19.007999	2817	19.007999
2818			19.01475	2818	19.01475
2819			19.0215	2819	19.0215
2820			19.02825	2820	19.02825
2821			19.035	2821	19.035
2822			19.04175	2822	19.04175
2823			19.0485	2823	19.0485
2824			19.05525	2824	19.05525
2825			19.062	2825	19.062
2826			19.06875	2826	19.06875
2827			19.0755	2827	19.0755
2828			19.082251	2828	19.082251
2829			19.089001	2829	19.089001
2830			19.095751	2830	19.095751
2831			19.102501	2831	19.102501
2832			19.109251	2832	19.109251
2833			19.115999	2833	19.115999
2834			19.122749	2834	19.122749
2835			19.129499	2835	19.129499
2836			19.13625	2836	19.13625
2837			19.143	2837	19.143
2838			19.14975	2838	19.14975
2839			19.1565	2839	19.1565
2840			19.16325	2840	19.16325
2841			19.17	2841	19.17
2842			19.17675	2842	19.17675
2843			19.1835	2843	19.1835
2844			19.19025	2844	19.19025
2845			19.197001	2845	19.197001
2846			19.203751	2846	19.203751
2847			19.210501	2847	19.210501
2848			19.217251	2848	19.217251
2849			19.224001	2849	19.224001
2850			19.230749	2850	19.230749
2851			19.237499	2851	19.237499
2852			19.244249	2852	19.244249
2853			19.250999	2853	19.250999
2854			19.25775	2854	19.25775
2855			19.2645	2855	19.2645
2856			19.27125	2856	19.27125
2857			19.278	2857	19.278
2858			19.28475	2858	19.28475
2859			19.2915	2859	19.2915
2860			19.29825	2860	19.29825
2861			19.305	2861	19.305
2862			19.31175	2862	19.31175
2863			19.318501	2863	19.318501
2864			19.325251	2864	19.325251
2865			19.332001	2865	19.332001
2866			19.338751	2866	19.338751
2867			19.345501	2867	19.345501
2868			19.352249	2868	19.352249
2869			19.358999	2869	19.358999
2870			19.365749	2870	19.365749
2871			19.372499	2871	19.372499
2872			19.37925	2872	19.37925
2873			19.386	2873	19.386
2874			19.39275	2874	19.39275
2875			19.3995	2875	19.3995
2876			19.40625	2876	19.40625
2877			19.413	2877	19.413
2878			19.41975	2878	19.41975
2879			19.4265	2879	19.4265
2880			19.43325	2880	19.43325
2881			19.440001	2881	19.440001
2882			19.446751	2882	19.446751
2883			19.453501	2883	19.453501
2884			19.460251	2884	19.460251
2885			19.467001	2885	19.467001
2886			19.473749	2886	19.473749
2887			19.480499	2887	19.480499
2888			19.487249	2888	19.487249
2889			19.493999	2889	19.493999
2890			19.50075	2890	19.50075
2891			19.5075	2891	19.5075
2892			19.51425	2892	19.51425
2893			19.521	2893	19.521
2894			19.52775	2894	19.52775
2895			19.5345	2895	19.5345
2896			19.54125	2896	19.54125
2897			19.548	2897	19.548
2898			19.55475	2898	19.55475
2899			19.561501	2899	19.561501
2900			19.568251	2900	19.568251
2901			19.575001	2901	19.575001
2902			19.581751	2902	19.581751
2903			19.588501	2903	19.588501
2904			19.595249	2904	19.595249
2905			19.601999	2905	19.601999
2906			19.608749	2906	19.608749
2907			19.615499	2907	19.615499
2908			19.62225	2908	19.62225
2909			19.629	2909	19.629
2910			19.63575	2910	19.63575
2911			19.6425	2911	19.6425
2912			19.64925	2912	19.64925
2913			19.656	2913	19.656
2914			19.66275	2914	19.66275
2915			19.6695	2915	19.6695
2916			19.67625	2916	19.67625
2917			19.683001	2917	19.683001
2918			19.689751	2918	19.689751
2919			19.696501	2919	19.696501
2920			19.703251	2920	19.703251
2921			19.710001	2921	19.710001
2922			19.716749	2922	19.716749
2923			19.723499	2923	19.723499
2924			19.730249	2924	19.730249
2925			19.737	2925	19.737
2926			19.74375	2926	19.74375
2927			19.7505	2927	19.7505
2928			19.75725	2928	19.75725
2929			19.764	2929	19.764
2930			19.77075	2930	19.77075
2931			19.7775	2931	19.7775
2932			19.78425	2932	19.78425
2933			19.791	2933	19.791
2934			19.79775	2934	19.79775
2935			19.804501	2935	19.804501
2936			19.811251	2936	19.811251
2937			19.818001	2937	19.818001
2938			19.824751	2938	19.824751
2939			19.831501	2939	19.831501
2940			19.838249	2940	19.838249
2941			19.844999	2941	19.844999
2942			19.851749	2942	19.851749
2943			19.8585	2943	19.8585
2944			19.86525	2944	19.86525
2945			19.872	2945	19.872
2946			19.87875	2946	19.87875
2947			19.8855	2947	19.8855
2948			19.89225	2948	19.89225
2949			19.899	2949	19.899
2950			19.90575	2950	19.90575
2951			19.9125	2951	19.9125
2952			19.91925	2952	19.91925
2953			19.926001	2953	19.926001
2954			19.932751	2954	19.932751
2955			19.939501	2955	19.939501
2956			19.946251	2956	19.946251
2957			19.953001	2957	19.953001
2958			19.959749	2958	19.959749
2959			19.966499	2959	19.966499
2960			19.973249	2960	19.973249
2961			19.98	2961	19.98
2962			19.98675	2962	19.98675
2963			19.9935	2963	19.9935
2964			20.00025	2964	20.00025
2965			20.007	2965	20.007
2966			20.01375	2966	20.01375
2967			20.0205	2967	20.0205
2968			20.02725	2968	20.02725
2969			20.034	2969	20.034
2970			20.040751	2970	20.040751
2971			20.047501	2971	20.047501
2972			20.054251	2972	20.054251
2973			20.061001	2973	20.061001
2974			20.067751	2974	20.067751
2975			20.074499	2975	20.074499
2976			20.081249	2976	20.081249
2977			20.087999	2977	20.087999
2978			20.094749	2978	20.094749
2979			20.1015	2979	20.1015
2980			20.10825	2980	20.10825
2981			20.115	2981	20.115
2982			20.12175	2982	20.12175
2983			20.1285	2983	20.1285
2984			20.13525	2984	20.13525
2985			20.142	2985	20.142
2986			20.14875	2986	20.14875
2987			20.1555	2987	20.1555
2988			20.162251	2988	20.162251
2989			20.169001	2989	20.169001
2990			20.175751	2990	20.175751
2991			20.182501	2991	20.182501
2992			20.189251	2992	20.189251
2993			20.195999	2993	20.195999
2994			20.202749	2994	20.202749
2995			20.209499	2995	20.209499
2996			20.216249	2996	20.216249
2997			20.223	2997	20.223
2998			20.22975	2998	20.22975
2999			20.2365	2999	20.2365
3000			20.24325	3000	20.24325
3001			20.25	3001	20.25
3002			20.25675	3002	20.25675
3003			20.2635	3003	20.2635
3004			20.27025	3004	20.27025
3005			20.277	3005	20.277
3006			20.283751	3006	20.283751
3007			20.290501	3007	20.290501
3008			20.297251	3008	20.297251
3009			20.304001	3009	20.304001
3010			20.310751	3010	20.310751
3011			20.317499	3011	20.317499
3012			20.324249	3012	20.324249
3013			20.330999	3013	20.330999
3014			20.337749	3014	20.337749
3015			20.3445	3015	20.3445
3016			20.35125	3016	20.35125
3017			20.358	3017	20.358
3018			20.36475	3018	20.36475
3019			20.3715	3019	20.3715
3020			20.37825	3020	20.37825
3021			20.385	3021	20.385
3022			20.39175	3022	20.39175
3023			20.3985	3023	20.3985
3024			20.405251	3024	20.405251
3025			20.412001	3025	20.412001
3026			20.418751	3026	20.418751
3027			20.425501	3027	20.425501
3028			20.432251	3028	20.432251
3029			20.438999	3029	20.438999
3030			20.445749	3030	20.445749
3031			20.452499	3031	20.452499
3032			20.459249	3032	20.459249
3033			20.466	3033	20.466
3034			20.47275	3034	20.47275
3035			20.4795	3035	20.4795
3036			20.48625	3036	20.48625
3037			20.493	3037	20.493
3038			20.49975	3038	20.49975
3039			20.5065	3039	20.5065
3040			20.51325	3040	20.51325
3041			20.52	3041	20.52
3042			20.526751	3042	20.526751
3043			20.533501	3043	20.533501
3044			20.540251	3044	20.540251
3045			20.547001	3045	20.547001
3046			20.553751	3046	20.553751
3047			20.560499	3047	20.560499
3048			20.567249	3048	20.567249
3049			20.573999	3049	20.573999
3050			20.58075	3050	20.58075
3051			20.5875	3051	20.5875
3052			20.59425	3052	20.59425
3053			20.601	3053	20.601
3054			20.60775	3054	20.60775
3055			20.6145	3055	20.6145
3056			20.62125	3056	20.62125
3057			20.628	3057	20.628
3058			20.63475	3058	20.63475
3059			20.6415	3059	20.6415
3060			20.648251	3060	20.648251
3061			20.655001	3061	20.655001
3062			20.661751	3062	20.661751
3063			20.668501	3063	20.668501
3064			20.675251	3064	20.675251
3065			20.681999	3065	20.681999
3066			20.688749	3066	20.688749
3067			20.695499	3067	20.695499
3068			20.70225	3068	20.70225
3069			20.709	3069	20.709
3070			20.71575	3070	20.71575
3071			20.7225	3071	20.7225
3072			20.72925	3072	20.72925
3073			20.736	3073	20.736
3074			20.74275	3074	20.74275
3075			20.7495	3075	20.7495
3076			20.75625	3076	20.75625
3077			20.763	3077	20.763
3078			20.769751	3078	20.769751
3079			20.776501	3079	20.776501
3080			20.783251	3080	20.783251
3081			20.790001	3081	20.790001
3082			20.796751	3082	20.796751
3083			20.803499	3083	20.803499
3084			20.810249	3084	20.810249
3085			20.816999	3085	20.816999
3086			20.82375	3086	20.82375
3087			20.8305	3087	20.8305
3088			20.83725	3088	20.83725
3089			20.844	3089	20.844
3090			20.85075	3090	20.85075
3091			20.8575	3091	20.8575
3092			20.86425	3092	20.86425
3093			20.871	3093	20.871
3094			20.87775	3094	20.87775
3095			20.884501	3095	20.884501
3096			20.891251	3096	20.891251
3097			20.898001	3097	20.898001
3098			20.904751	3098	20.904751
3099			20.911501	3099	20.911501
3100			20.918249	3100	20.918249
3101			20.924999	3101	20.924999
3102			20.931749	3102	20.931749
3103			20.938499	3103	20.938499
3104			20.94525	3104	20.94525
3105			20.952	3105	20.952
3106			20.95875	3106	20.95875
3107			20.9655	3107	20.9655
3108			20.97225	3108	20.97225
3109			20.979	3109	20.979
3110			20.98575	3110	20.98575
3111			20.9925	3111	20.9925
3112			20.99925	3112	20.99925
3113			21.006001	3113	21.006001
3114			21.012751	3114	21.012751
3115			21.019501	3115	21.019501
3116			21.026251	3116	21.026251
3117			21.033001	3117	21.033001
3118			21.039749	3118	21.039749
3119			21.046499	3119	21.046499
3120			21.053249	3120	21.053249
3121			21.059999	3121	21.059999
3122			21.06675	3122	21.06675
3123			21.0735	3123	21.0735
3124			21.08025	3124	21.08025
3125			21.087	3125	21.087
3126			21.09375	3126	21.09375
3127			21.1005	3127	21.1005
3128			21.10725	3128	21.10725
3129			21.114	3129	21.114
3130			21.12075	3130	21.12075
3131			21.127501	3131	21.127501
3132			21.134251	3132	21.134251
3133			21.141001	3133	21.141001
3134			21.147751	3134	21.147751
3135			21.154501	3135	21.154501
3136			21.161249	3136	21.161249
3137			21.167999	3137	21.167999
3138			21.174749	3138	21.174749
3139			21.181499	3139	21.181499
3140			21.18825	3140	21.18825
3141			21.195	3141	21.195
3142			21.20175	3142	21.20175
3143			21.2085	3143	21.2085
3144			21.21525	3144	21.21525
3145			21.222	3145	21.222
3146			21.22875	3146	21.22875
3147			21.2355	3147	21.2355
3148			21.24225	3148	21.24225
3149			21.249001	3149	21.249001
3150			21.255751	3150	21.255751
3151			21.262501	3151	21.262501
3152			21.269251	3152	21.269251
3153			21.276001	3153	21.276001
3154			21.282749	3154	21.282749
3155			21.289499	3155	21.289499
3156			21.296249	3156	21.296249
3157			21.302999	3157	21.302999
3158			21.30975	3158	21.30975
3159			21.3165	3159	21.3165
3160			21.32325	3160	21.32325
3161			21.33	3161	21.33
3162			21.33675	3162	21.33675
3163			21.3435	3163	21.3435
3164			21.35025	3164	21.35025
3165			21.357	3165	21.357
3166			21.36375	3166	21.36375
3167			21.370501	3167	21.370501
3168			21.377251	3168	21.377251
3169			21.384001	3169	21.384001
3170			21.390751	3170	21.390751
3171			21.397501	3171	21.397501
3172			21.404249	3172	21.404249
3173			21.410999	3173	21.410999
3174			21.417749	3174	21.417749
3175			21.4245	3175	21.4245
3176			21.43125	3176	21.43125
3177			21.438	3177	21.438
3178			21.44475	3178	21.44475
3179			21.4515	3179	21.4515
3180			21.45825	3180	21.45825
3181			21.465	3181	21.465
3182			21.47175	3182	21.47175
3183			21.4785	3183	21.4785
3184			21.48525	3184	21.48525
3185			21.492001	3185	21.492001
3186			21.498751	3186	21.498751
3187			21.505501	3187	21.505501
3188			21.512251	3188	21.512251
3189			21.519001	3189	21.519001
3190			21.525749	3190	21.525749
3191			21.532499	3191	21.532499
3192			21.539249	3192	21.539249
3193			21.546	3193	21.546
3194			21.55275	3194	21.55275
3195			21.5595	3195	21.5595
3196			21.56625	3196	21.56625
3197			21.573	3197	21.573
3198			21.57975	3198	21.57975
3199			21.5865	3199	21.5865
3200			21.59325	3200	21.59325
3201			21.6	3201	21.6
3202			21.60675	3202	21.60675
3203			21.613501	3203	21.613501
3204			21.620251	3204	21.620251
3205			21.627001	3205	21.627001
3206			21.633751	3206	21.633751
3207			21.640501	3207	21.640501
3208			21.647249	3208	21.647249
3209			21.653999	3209	21.653999
3210			21.660749	3210	21.660749
3211			21.6675	3211	21.6675
3212			21.67425	3212	21.67425
3213			21.681	3213	21.681
3214			21.68775	3214	21.68775
3215			21.6945	3215	21.6945
3216			21.70125	3216	21.70125
3217			21.708	3217	21.708
3218			21.71475	3218	21.71475
3219			21.7215	3219	21.7215
3220			21.728251	3220	21.728251
3221			21.735001	3221	21.735001
3222			21.741751	3222	21.741751
3223			21.748501	3223	21.748501
3224			21.755251	3224	21.755251
3225			21.761999	3225	21.761999
3226			21.768749	3226	21.768749
3227			21.775499	3227	21.775499
3228			21.782249	3228	21.782249
3229			21.789	3229	21.789
3230			21.79575	3230	21.79575
3231			21.8025	3231	21.8025
3232			21.80925	3232	21.80925
3233			21.816	3233	21.816
3234			21.82275	3234	21.82275
3235			21.8295	3235	21.8295
3236			21.83625	3236	21.83625
3237			21.843	3237	21.843
3238			21.849751	3238	21.849751
3239			21.856501	3239	21.856501
3240			21.863251	3240	21.863251
3241			21.870001	3241	21.870001
3242			21.876751	3242	21.876751
3243			21.883499	3243	21.883499
3244			21.890249	3244	21.890249
3245			21.896999	3245	21.896999
3246			21.903749	3246	21.903749
3247			21.9105	3247	21.9105
3248			21.91725	3248	21.91725
3249			21.924	3249	21.924
3250			21.93075	3250	21.93075
3251			21.9375	3251	21.9375
3252			21.94425	3252	21.94425
3253			21.951	3253	21.951
3254			21.95775	3254	21.95775
3255			21.9645	3255	21.9645
3256			21.971251	3256	21.971251
3257			21.978001	3257	21.978001
3258			21.984751	3258	21.984751
3259			21.991501	3259	21.991501
3260			21.998251	3260	21.998251
3261			22.004999	3261	22.004999
3262			22.011749	3262	22.011749
3263			22.018499	3263	22.018499
3264			22.025249	3264	22.025249
3265			22.032	3265	22.032
3266			22.03875	3266	22.03875
3267			22.0455	3267	22.0455
3268			22.05225	3268	22.05225
3269			22.059	3269	22.059
3270			22.06575	3270	22.06575
3271			22.0725	3271	22.0725
3272			22.07925	3272	22.07925
3273			22.086	3273	22.086
3274			22.092751	3274	22.092751
3275			22.099501	3275	22.099501
3276			22.106251	3276	22.106251
3277			22.113001	3277	22.113001
3278			22.119751	3278	22.119751
3279			22.126499	3279	22.126499
3280			22.133249	3280	22.133249
3281			22.139999	3281	22.139999
3282			22.146749	3282	22.146749
3283			22.1535	3283	22.1535
3284			22.16025	3284	22.16025
3285			22.167	3285	22.167
3286			22.17375	3286	22.17375
3287			22.1805	3287	22.1805
3288			22.18725	3288	22.18725
3289			22.194	3289	22.194
3290			22.20075	3290	22.20075
3291			22.2075	3291	22.2075
3292			22.214251	3292	22.214251
3293			22.221001	3293	22.221001
3294			22.227751	3294	22.227751
3295			22.234501	3295	22.234501
3296			22.241251	3296	22.241251
3297			22.247999	3297	22.247999
3298			22.254749	3298	22.254749
3299			22.261499	3299	22.261499
3300			22.26825	3300	22.26825
3301			22.275	3301	22.275
3302			22.28175	3302	22.28175
3303			22.2885	3303	22.2885
3304			22.29525	3304	22.29525
3305			22.302	3305	22.302
3306			22.30875	3306	22.30875
3307			22.3155	3307	22.3155
3308			22.32225	3308	22.32225
3309			22.329	3309	22.329
3310			22.335751	3310	22.335751
3311			22.342501	3311	22.342501
3312			22.349251	3312	22.349251
3313			22.356001	3313	22.356001
3314			22.362751	3314	22.362751
3315			22.369499	3315	22.369499
3316			22.376249	3316	22.376249
3317			22.382999	3317	22.382999
3318			22.38975	3318	22.38975
3319			22.3965	3319	22.3965
3320			22.40325	3320	22.40325
3321			22.41	3321	22.41
3322			22.41675	3322	22.41675
3323			22.4235	3323	22.4235
3324			22.43025	3324	22.43025
3325			22.437	3325	22.437
3326			22.44375	3326	22.44375
3327			22.4505	3327	22.4505
3328			22.457251	3328	22.457251
3329			22.464001	3329	22.464001
3330			22.470751	3330	22.470751
3331			22.477501	3331	22.477501
3332			22.484251	3332	22.484251
3333			22.490999	3333	22.490999
3334			22.497749	3334	22.497749
3335			22.504499	3335	22.504499
3336			22.51125	3336	22.51125
3337			22.518	3337	22.518
3338			22.52475	3338	22.52475
3339			22.5315	3339	22.5315
3340			22.53825	3340	22.53825
3341			22.545	3341	22.545
3342			22.55175	3342	22.55175
3343			22.5585	3343	22.5585
3344			22.56525	3344	22.56525
3345			22.572001	3345	22.572001
3346			22.578751	3346	22.578751
3347			22.585501	3347	22.585501
3348			22.592251	3348	22.592251
3349			22.599001	3349	22.599001
3350			22.605751	3350	22.605751
3351			22.612499	3351	22.612499
3352			22.619249	3352	22.619249
3353			22.625999	3353	22.625999
3354			22.63275	3354	22.63275
3355			22.6395	3355	22.6395
3356			22.64625	3356	22.64625
3357			22.653	3357	22.653
3358			22.65975	3358	22.65975
3359			22.6665	3359	22.6665
3360			22.67325	3360	22.67325
3361			22.68	3361	22.68
3362			22.68675	3362	22.68675
3363			22.693501	3363	22.693501
3364			22.700251	3364	22.700251
3365			22.707001	3365	22.707001
3366			22.713751	3366	22.713751
3367			22.720501	3367	22.720501
3368			22.727249	3368	22.727249
3369			22.733999	3369	22.733999
3370			22.740749	3370	22.740749
3371			22.747499	3371	22.747499
3372			22.75425	3372	22.75425
3373			22.761	3373	22.761
3374			22.76775	3374	22.76775
3375			22.7745	3375	22.7745
3376			22.78125	3376	22.78125
3377			22.788	3377	22.788
3378			22.79475	3378	22.79475
3379			22.8015	3379	22.8015
3380			22.80825	3380	22.80825
3381			22.815001	3381	22.815001
3382			22.821751	3382	22.821751
3383			22.828501	3383	22.828501
3384			22.835251	3384	22.835251
3385			22.842001	3385	22.842001
3386			22.848749	3386	22.848749
3387			22.855499	3387	22.855499
3388			22.862249	3388	22.862249
3389			22.868999	3389	22.868999
3390			22.87575	3390	22.87575
3391			22.8825	3391	22.8825
3392			22.88925	3392	22.88925
3393			22.896	3393	22.896
3394			22.90275	3394	22.90275
3395			22.9095	3395	22.9095
3396			22.91625	3396	22.91625
3397			22.923	3397	22.923
3398			22.92975	3398	22.92975
3399			22.936501	3399	22.936501
3400			22.943251	3400	22.943251
3401			22.950001	3401	22.950001
3402			22.956751	3402	22.956751
3403			22.963501	3403	22.963501
3404			22.970249	3404	22.970249
3405			22.976999	3405	22.976999
3406			22.983749	3406	22.983749
3407			22.990499	3407	22.990499
3408			22.99725	3408	22.99725
3409			23.004	3409	23.004
3410			23.01075	3410	23.01075
3411			23.0175	3411	23.0175
3412			23.02425	3412	23.02425
3413			23.031	3413	23.031
3414			23.03775	3414	23.03775
3415			23.0445	3415	23.0445
3416			23.05125	3416	23.05125
3417			23.058001	3417	23.058001
3418			23.064751	3418	23.064751
3419			23.071501	3419	23.071501
3420			23.078251	3420	23.078251
3421			23.085001	3421	23.085001
3422			23.091749	3422	23.091749
3423			23.098499	3423	23.098499
3424			23.105249	3424	23.105249
3425			23.112	3425	23.112
3426			23.11875	3426	23.11875
3427			23.1255	3427	23.1255
3428			23.13225	3428	23.13225
3429			23.139	3429	23.139
3430			23.14575	3430	23.14575
3431			23.1525	3431	23.1525
3432			23.15925	3432	23.15925
3433			23.166	3433	23.166
3434			23.17275	3434	23.17275
3435			23.179501	3435	23.179501
3436			23.186251	3436	23.186251
3437			23.193001	3437	23.193001
3438			23.199751	3438	23.199751
3439			23.206501	3439	23.206501
3440			23.213249	3440	23.213249
3441			23.219999	3441	23.219999
3442			23.226749	3442	23.226749
3443			23.2335	3443	23.2335
3444			23.24025	3444	23.24025
3445			23.247	3445	23.247
3446			23.25375	3446	23.25375
3447			23.2605	3447	23.2605
3448			23.26725	3448	23.26725
3449			23.274	3449	23.274
3450			23.28075	3450	23.28075
3451			23.2875	3451	23.2875
3452			23.29425	3452	23.29425
3453			23.301001	3453	23.301001
3454			23.307751	3454	23.307751
3455			23.314501	3455	23.314501
3456			23.321251	3456	23.321251
3457			23.328001	3457	23.328001
3458			23.334749	3458	23.334749
3459			23.341499	3459	23.341499
3460			23.348249	3460	23.348249
3461			23.355	3461	23.355
3462			23.36175	3462	23.36175
3463			23.3685	3463	23.3685
3464			23.37525	3464	23.37525
3465			23.382	3465	23.382
3466			23.38875	3466	23.38875
3467			23.3955	3467	23.3955
3468			23.40225	3468	23.40225
3469			23.409	3469	23.409
3470			23.415751	3470	23.415751
3471			23.422501	3471	23.422501
3472			23.429251	3472	23.429251
3473			23.436001	3473	23.436001
3474			23.442751	3474	23.442751
3475			23.449501	3475	23.449501
3476			23.456249	3476	23.456249
3477			23.462999	3477	23.462999
3478			23.469749	3478	23.469749
3479			23.4765	3479	23.4765
3480			23.48325	3480	23.48325
3481			23.49	3481	23.49
3482			23.49675	3482	23.49675
3483			23.5035	3483	23.5035
3484			23.51025	3484	23.51025
3485			23.517	3485	23.517
3486			23.52375	3486	23.52375
3487			23.5305	3487	23.5305
3488			23.537251	3488	23.537251
3489			23.544001	3489	23.544001
3490			23.550751	3490	23.550751
3491			23.557501	3491	23.557501
3492			23.564251	3492	23.564251
3493			23.570999	3493	23.570999
3494			23.577749	3494	23.577749
3495			23.584499	3495	23.584499
3496			23.591249	3496	23.591249
3497			23.598	3497	23.598
3498			23.60475	3498	23.60475
3499			23.6115	3499	23.6115
3500			23.61825	3500	23.61825
3501			23.625	3501	23.625
3502			23.63175	3502	23.63175
3503			23.6385	3503	23.6385
3504			23.64525	3504	23.64525
3505			23.652	3505	23.652
3506			23.658751	3506	23.658751
3507			23.665501	3507	23.665501
3508			23.672251	3508	23.672251
3509			23.679001	3509	23.679001
3510			23.685751	3510	23.685751
3511			23.692499	3511	23.692499
3512			23.699249	3512	23.699249
3513			23.705999	3513	23.705999
3514			23.712749	3514	23.712749
3515			23.7195	3515	23.7195
3516			23.72625	3516	23.72625
3517			23.733	3517	23.733
3518			23.73975	3518	23.73975
3519			23.7465	3519	23.7465
3520			23.75325	3520	23.75325
3521			23.76	3521	23.76
3522			23.76675	3522	23.76675
3523			23.7735	3523	23.7735
3524			23.780251	3524	23.780251
3525			23.787001	3525	23.787001
3526			23.793751	3526	23.793751
3527			23.800501	3527	23.800501
3528			23.807251	3528	23.807251
3529			23.813999	3529	23.813999
3530			23.820749	3530	23.820749
3531			23.827499	3531	23.827499
3532			23.834249	3532	23.834249
3533			23.841	3533	23.841
3534			23.84775	3534	23.84775
3535			23.8545	3535	23.8545
3536			23.86125	3536	23.86125
3537			23.868	3537	23.868
3538			23.87475	3538	23.87475
3539			23.8815	3539	23.8815
3540			23.88825	3540	23.88825
3541			23.895	3541	23.895
3542			23.901751	3542	23.901751
3543			23.908501	3543	23.908501
3544			23.915251	3544	23.915251
3545			23.922001	3545	23.922001
3546			23.928751	3546	23.928751
3547			23.935499	3547	23.935499
3548			23.942249	3548	23.942249
3549			23.948999	3549	23.948999
3550			23.95575	3550	23.95575
3551			23.9625	3551	23.9625
3552			23.96925	3552	23.96925
3553			23.976	3553	23.976
3554			23.98275	3554	23.98275
3555			23.9895	3555	23.9895
3556			23.99625	3556	23.99625
3557			24.003	3557	24.003
3558			24.00975	3558	24.00975
3559			24.0165	3559	24.0165
3560			24.023251	3560	24.023251
3561			24.030001	3561	24.030001
3562			24.036751	3562	24.036751
3563			24.043501	3563	24.043501
3564			24.050251	3564	24.050251
3565			24.056999	3565	24.056999
3566			24.063749	3566	24.063749
3567			24.070499	3567	24.070499
3568			24.07725	3568	24.07725
3569			24.084	3569	24.084
3570			24.09075	3570	24.09075
3571			24.0975	3571	24.0975
3572			24.10425	3572	24.10425
3573			24.111	3573	24.111
3574			24.11775	3574	24.11775
3575			24.1245	3575	24.1245
3576			24.13125	3576	24.13125
3577			24.138	3577	24.138
3578			24.144751	3578	24.144751
3579			24.151501	3579	24.151501
3580			24.158251	3580	24.158251
3581			24.165001	3581	24.165001
3582			24.171751	3582	24.171751
3583			24.178499	3583	24.178499
3584			24.185249	3584	24.185249
3585			24.191999	3585	24.191999
3586			24.19875	3586	24.19875
3587			24.2055	3587	24.2055
3588			24.21225	3588	24.21225
3589			24.219	3589	24.219
3590			24.22575	3590	24.22575
3591			24.2325	3591	24.2325
3592			24.23925	3592	24.23925
3593			24.246	3593	24.246
3594			24.25275	3594	24.25275
3595			24.259501	3595	24.259501
3596			24.266251	3596	24.266251
3597			24.273001	3597	24.273001
3598			24.279751	3598	24.279751
3599			24.286501	3599	24.286501
3600			24.293251	3600	24.293251
3601			24.299999	3601	24.299999
3602			24.306749	3602	24.306749
3603			24.313499	3603	24.313499
3604			24.32025	3604	24.32025
3605			24.327	3605	24.327
3606			24.33375	3606	24.33375
3607			24.3405	3607	24.3405
3608			24.34725	3608	24.34725
3609			24.354	3609	24.354
3610			24.36075	3610	24.36075
3611			24.3675	3611	24.3675
3612			24.37425	3612	24.37425
3613			24.381001	3613	24.381001
3614			24.387751	3614	24.387751
3615			24.394501	3615	24.394501
3616			24.401251	3616	24.401251
3617			24.408001	3617	24.408001
3618			24.414749	3618	24.414749
3619			24.421499	3619	24.421499
3620			24.428249	3620	24.428249
3621			24.434999	3621	24.434999
3622			24.44175	3622	24.44175
3623			24.4485	3623	24.4485
3624			24.45525	3624	24.45525
3625			24.462	3625	24.462
3626			24.46875	3626	24.46875
3627			24.4755	3627	24.4755
3628			24.48225	3628	24.48225
3629			24.489	3629	24.489
3630			24.49575	3630	24.49575
3631			24.502501	3631	24.502501
3632			24.509251	3632	24.509251
3633			24.516001	3633	24.516001
3634			24.522751	3634	24.522751
3635			24.529501	3635	24.529501
3636			24.536249	3636	24.536249
3637			24.542999	3637	24.542999
3638			24.549749	3638	24.549749
3639			24.556499	3639	24.556499
3640			24.56325	3640	24.56325
3641			24.57	3641	24.57
3642			24.57675	3642	24.57675
3643			24.5835	3643	24.5835
3644			24.59025	3644	24.59025
3645			24.597	3645	24.597
3646			24.60375	3646	24.60375
3647			24.6105	3647	24.6105
3648			24.61725	3648	24.61725
3649			24.624001	3649	24.624001
3650			24.630751	3650	24.630751
3651			24.637501	3651	24.637501
3652			24.644251	3652	24.644251
3653			24.651001	3653	24.651001
3654			24.657749	3654	24.657749
3655			24.664499	3655	24.664499
3656			24.671249	3656	24.671249
3657			24.677999	3657	24.677999
3658			24.68475	3658	24.68475
3659			24.6915	3659	24.6915
3660			24.69825	3660	24.69825
3661			24.705	3661	24.705
3662			24.71175	3662	24.71175
3663			24.7185	3663	24.7185
3664			24.72525	3664	24.72525
3665			24.732	3665	24.732
3666			24.73875	3666	24.73875
3667			24.745501	3667	24.745501
3668			24.752251	3668	24.752251
3669			24.759001	3669	24.759001
3670			24.765751	3670	24.765751
3671			24.772501	3671	24.772501
3672			24.779249	3672	24.779249
3673			24.785999	3673	24.785999
3674			24.792749	3674	24.792749
3675			24.7995	3675	24.7995
3676			24.80625	3676	24.80625
3677			24.813	3677	24.813
3678			24.81975	3678	24.81975
3679			24.8265	3679	24.8265
3680			24.83325	3680	24.83325
3681			24.84	3681	24.84
3682			24.84675	3682	24.84675
3683			24.8535	3683	24.8535
3684			24.86025	3684	24.86025
3685			24.867001	3685	24.867001
3686			24.873751	3686	24.873751
3687			24.880501	3687	24.880501
3688			24.887251	3688	24.887251
3689			24.894001	3689	24.894001
3690			24.900749	3690	24.900749
3691			24.907499	3691	24.907499
3692			24.914249	3692	24.914249
3693			24.921	3693	24.921
3694			24.92775	3694	24.92775
3695			24.9345	3695	24.9345
3696			24.94125	3696	24.94125
3697			24.948	3697	24.948
3698			24.95475	3698	24.95475
3699			24.9615	3699	24.9615
3700			24.96825	3700	24.96825
3701			24.975	3701	24.975
3702			24.98175	3702	24.98175
3703			24.988501	3703	24.988501
3704			24.995251	3704	24.995251
3705			25.002001	3705	25.002001
3706			25.008751	3706	25.008751
3707			25.015501	3707	25.015501
3708			25.022249	3708	25.022249
3709			25.028999	3709	25.028999
3710			25.035749	3710	25.035749
3711			25.0425	3711	25.0425
3712			25.04925	3712	25.04925
3713			25.056	3713	25.056
3714			25.06275	3714	25.06275
3715			25.0695	3715	25.0695
3716			25.07625	3716	25.07625
3717			25.083	3717	25.083
3718			25.08975	3718	25.08975
3719			25.0965	3719	25.0965
3720			25.103251	3720	25.103251
3721			25.110001	3721	25.110001
3722			25.116751	3722	25.116751
3723			25.123501	3723	25.123501
3724			25.130251	3724	25.130251
3725			25.137001	3725	25.137001
3726			25.143749	3726	25.143749
3727			25.150499	3727	25.150499
3728			25.157249	3728	25.157249
3729			25.164	3729	25.164
3730			25.17075	3730	25.17075
3731			25.1775	3731	25.1775
3732			25.18425	3732	25.18425
3733			25.191	3733	25.191
3734			25.19775	3734	25.19775
3735			25.2045	3735	25.2045
3736			25.21125	3736	25.21125
3737			25.218	3737	25.218
3738			25.224751	3738	25.224751
3739			25.231501	3739	25.231501
3740			25.238251	3740	25.238251
3741			25.245001	3741	25.245001
3742			25.251751	3742	25.251751
3743			25.258499	3743	25.258499
3744			25.265249	3744	25.265249
3745			25.271999	3745	25.271999
3746			25.278749	3746	25.278749
3747			25.2855	3747	25.2855
3748			25.29225	3748	25.29225
3749			25.299	3749	25.299
3750			25.30575	3750	25.30575
3751			25.3125	3751	25.3125
3752			25.31925	3752	25.31925
3753			25.326	3753	25.326
3754			25.33275	3754	25.33275
3755			25.3395	3755	25.3395
3756			25.346251	3756	25.346251
3757			25.353001	3757	25.353001
3758			25.359751	3758	25.359751
3759			25.366501	3759	25.366501
3760			25.373251	3760	25.373251
3761			25.379999	3761	25.379999
3762			25.386749	3762	25.386749
3763			25.393499	3763	25.393499
3764			25.400249	3764	25.400249
3765			25.407	3765	25.407
3766			25.41375	3766	25.41375
3767			25.4205	3767	25.4205
3768			25.42725	3768	25.42725
3769			25.434	3769	25.434
3770			25.44075	3770	25.44075
3771			25.4475	3771	25.4475
3772			25.45425	3772	25.45425
3773			25.461	3773	25.461
3774			25.467751	3774	25.467751
3775			25.474501	3775	25.474501
3776			25.481251	3776	25.481251
3777			25.488001	3777	25.488001
3778			25.494751	3778	25.494751
3779			25.501499	3779	25.501499
3780			25.508249	3780	25.508249
3781			25.514999	3781	25.514999
3782			25.521749	3782	25.521749
3783			25.5285	3783	25.5285
3784			25.53525	3784	25.53525
3785			25.542	3785	25.542
3786			25.54875	3786	25.54875
3787			25.5555	3787	25.5555
3788			25.56225	3788	25.56225
3789			25.569	3789	25.569
3790			25.57575	3790	25.57575
3791			25.5825	3791	25.5825
3792			25.589251	3792	25.589251
3793			25.596001	3793	25.596001
3794			25.602751	3794	25.602751
3795			25.609501	3795	25.609501
3796			25.616251	3796	25.616251
3797			25.622999	3797	25.622999
3798			25.629749	3798	25.629749
3799			25.636499	3799	25.636499
3800			25.64325	3800	25.64325
3801			25.65	3801	25.65
3802			25.65675	3802	25.65675
3803			25.6635	3803	25.6635
3804			25.67025	3804	25.67025
3805			25.677	3805	25.677
3806			25.68375	3806	25.68375
3807			25.6905	3807	25.6905
3808			25.69725	3808	25.69725
3809			25.704	3809	25.704
3810			25.710751	3810	25.710751
3811			25.717501	3811	25.717501
3812			25.724251	3812	25.724251
3813			25.731001	3813	25.731001
3814			25.737751	3814	25.737751
3815			25.744499	3815	25.744499
3816			25.751249	3816	25.751249
3817			25.757999	3817	25.757999
3818			25.76475	3818	25.76475
3819			25.7715	3819	25.7715
3820			25.77825	3820	25.77825
3821			25.785	3821	25.785
3822			25.79175	3822	25.79175
3823			25.7985	3823	25.7985
3824			25.80525	3824	25.80525
3825			25.812	3825	25.812
3826			25.81875	3826	25.81875
3827			25.8255	3827	25.8255
3828			25.832251	3828	25.832251
3829			25.839001	3829	25.839001
3830			25.845751	3830	25.845751
3831			25.852501	3831	25.852501
3832			25.859251	3832	25.859251
3833			25.865999	3833	25.865999
3834			25.872749	3834	25.872749
3835			25.879499	3835	25.879499
3836			25.88625	3836	25.88625
3837			25.893	3837	25.893
3838			25.89975	3838	25.89975
3839			25.9065	3839	25.9065
3840			25.91325	3840	25.91325
3841			25.92	3841	25.92
3842			25.92675	3842	25.92675
3843			25.9335	3843	25.9335
3844			25.94025	3844	25.94025
3845			25.947001	3845	25.947001
3846			25.953751	3846	25.953751
3847			25.960501	3847	25.960501
3848			25.967251	3848	25.967251
3849			25.974001	3849	25.974001
3850			25.980751	3850	25.980751
3851			25.987499	3851	25.987499
3852			25.994249	3852	25.994249
3853			26.000999	3853	26.000999
3854			26.00775	3854	26.00775
3855			26.0145	3855	26.0145
3856			26.02125	3856	26.02125
3857			26.028	3857	26.028
3858			26.03475	3858	26.03475
3859			26.0415	3859	26.0415
3860			26.04825	3860	26.04825
3861			26.055	3861	26.055
3862			26.06175	3862	26.06175
3863			26.068501	3863	26.068501
3864			26.075251	3864	26.075251
3865			26.082001	3865	26.082001
3866			26.088751	3866	26.088751
3867			26.095501	3867	26.095501
3868			26.102251	3868	26.102251
3869			26.108999	3869	26.108999
3870			26.115749	3870	26.115749
3871			26.122499	3871	26.122499
3872			26.12925	3872	26.12925
3873			26.136	3873	26.136
3874			26.14275	3874	26.14275
3875			26.1495	3875	26.1495
3876			26.15625	3876	26.15625
3877			26.163	3877	26.163
3878			26.16975	3878	26.16975
3879			26.1765	3879	26.1765
3880			26.18325	3880	26.18325
3881			26.190001	3881	26.190001
3882			26.196751	3882	26.196751
3883			26.203501	3883	26.203501
3884			26.210251	3884	26.210251
3885			26.217001	3885	26.217001
3886			26.223749	3886	26.223749
3887			26.230499	3887	26.230499
3888			26.237249	3888	26.237249
3889			26.243999	3889	26.243999
3890			26.25075	3890	26.25075
3891			26.2575	3891	26.2575
3892			26.26425	3892	26.26425
3893			26.271	3893	26.271
3894			26.27775	3894	26.27775
3895			26.2845	3895	26.2845
3896			26.29125	3896	26.29125
3897			26.298	3897	26.298
3898			26.30475	3898	26.30475
3899			26.311501	3899	26.311501
3900			26.318251	3900	26.318251
3901			26.325001	3901	26.325001
3902			26.331751	3902	26.331751
3903			26.338501	3903	26.338501
3904			26.345249	3904	26.345249
3905			26.351999	3905	26.351999
3906			26.358749	3906	26.358749
3907			26.365499	3907	26.365499
3908			26.37225	3908	26.37225
3909			26.379	3909	26.379
3910			26.38575	3910	26.38575
3911			26.3925	3911	26.3925
3912			26.39925	3912	26.39925
3913			26.406	3913	26.406
3914			26.41275	3914	26.41275
3915			26.4195	3915	26.4195
3916			26.42625	3916	26.42625
3917			26.433001	3917	26.433001
3918			26.439751	3918	26.439751
3919			26.446501	3919	26.446501
3920			26.453251	3920	26.453251
3921			26.460001	3921	26.460001
3922			26.466749	3922	26.466749
3923			26.473499	3923	26.473499
3924			26.480249	3924	26.480249
3925			26.487	3925	26.487
3926			26.49375	3926	26.49375
3927			26.5005	3927	26.5005
3928			26.50725	3928	26.50725
3929			26.514	3929	26.514
3930			26.52075	3930	26.52075
3931			26.5275	3931	26.5275
3932			26.53425	3932	26.53425
3933			26.541	3933	26.541
3934			26.54775	3934	26.54775
3935			26.554501	3935	26.554501
3936			26.561251	3936	26.561251
3937			26.568001	3937	26.568001
3938			26.574751	3938	26.574751
3939			26.581501	3939	26.581501
3940			26.588249	3940	26.588249
3941			26.594999	3941	26.594999
3942			26.601749	3942	26.601749
3943			26.6085	3943	26.6085
3944			26.61525	3944	26.61525
3945			26.622	3945	26.622
3946			26.62875	3946	26.62875
3947			26.6355	3947	26.6355
3948			26.64225	3948	26.64225
3949			26.649	3949	26.649
3950			26.65575	3950	26.65575
3951			26.6625	3951	26.6625
3952			26.66925	3952	26.66925
3953			26.676001	3953	26.676001
3954			26.682751	3954	26.682751
3955			26.689501	3955	26.689501
3956			26.696251	3956	26.696251
3957			26.703001	3957	26.703001
3958			26.709749	3958	26.709749
3959			26.716499	3959	26.716499
3960			26.723249	3960	26.723249
3961			26.73	3961	26.73
3962			26.73675	3962	26.73675
3963			26.7435	3963	26.7435
3964			26.75025	3964	26.75025
3965			26.757	3965	26.757
3966			26.76375	3966	26.76375
3967			26.7705	3967	26.7705
3968			26.77725	3968	26.77725
3969			26.784	3969	26.784
3970			26.790751	3970	26.790751
3971			26.797501	3971	26.797501
3972			26.804251	3972	26.804251
3973			26.811001	3973	26.811001
3974			26.817751	3974	26.817751
3975			26.824501	3975	26.824501
3976			26.831249	3976	26.831249
3977			26.837999	3977	26.837999
3978			26.844749	3978	26.844749
3979			26.8515	3979	26.8515
3980			26.85825	3980	26.85825
3981			26.865	3981	26.865
3982			26.87175	3982	26.87175
3983			26.8785	3983	26.8785
3984			26.88525	3984	26.88525
3985			26.892	3985	26.892
3986			26.89875	3986	26.89875
3987			26.9055	3987	26.9055
3988			26.912251	3988	26.912251
3989			26.919001	3989	26.919001
3990			26.925751	3990	26.925751
3991			26.932501	3991	26.932501
3992			26.939251	3992	26.939251
3993			26.946001	3993	26.946001
3994			26.952749	3994	26.952749
3995			26.959499	3995	26.959499
3996			26.966249	3996	26.966249
3997			26.973	3997	26.973
3998			26.97975	3998	26.97975
3999			26.9865	3999	26.9865
4000			26.99325	4000	26.99325
4001			27	4001	27
4002			27.00675	4002	27.00675
4003			27.0135	4003	27.0135
4004			27.02025	4004	27.02025
4005			27.027	4005	27.027
4006			27.033751	4006	27.033751
4007			27.040501	4007	27.040501
4008			27.047251	4008	27.047251
4009			27.054001	4009	27.054001
4010			27.060751	4010	27.060751
4011			27.067499	4011	27.067499
4012			27.074249	4012	27.074249
4013			27.080999	4013	27.080999
4014			27.087749	4014	27.087749
4015			27.0945	4015	27.0945
4016			27.10125	4016	27.10125
4017			27.108	4017	27.108
4018			27.11475	4018	27.11475
4019			27.1215	4019	27.1215
4020			27.12825	4020	27.12825
4021			27.135	4021	27.135
4022			27.14175	4022	27.14175
4023			27.1485	4023	27.1485
4024			27.155251	4024	27.155251
4025			27.162001	4025	27.162001
4026			27.168751	4026	27.168751
4027			27.175501	4027	27.175501
4028			27.182251	4028	27.182251
4029			27.188999	4029	27.188999
4030			27.195749	4030	27.195749
4031			27.202499	4031	27.202499
4032			27.209249	4032	27.209249
4033			27.216	4033	27.216
4034			27.22275	4034	27.22275
4035			27.2295	4035	27.2295
4036			27.23625	4036	27.23625
4037			27.243	4037	27.243
4038			27.24975	4038	27.24975
4039			27.2565	4039	27.2565
4040			27.26325	4040	27.26325
4041			27.27	4041	27.27
4042			27.276751	4042	27.276751
4043			27.283501	4043	27.283501
4044			27.290251	4044	27.290251
4045			27.297001	4045	27.297001
4046			27.303751	4046	27.303751
4047			27.310499	4047	27.310499
4048			27.317249	4048	27.317249
4049			27.323999	4049	27.323999
4050			27.33075	4050	27.33075
4051			27.3375	4051	27.3375
4052			27.34425	4052	27.34425
4053			27.351	4053	27.351
4054			27.35775	4054	27.35775
4055			27.3645	4055	27.3645
4056			27.37125	4056	27.37125
4057			27.378	4057	27.378
4058			27.38475	4058	27.38475
4059			27.3915	4059	27.3915
4060			27.398251	4060	27.398251
4061			27.405001	4061	27.405001
4062			27.411751	4062	27.411751
4063			27.418501	4063	27.418501
4064			27.425251	4064	27.425251
4065			27.431999	4065	27.431999
4066			27.438749	4066	27.438749
4067			27.445499	4067	27.445499
4068			27.45225	4068	27.45225
4069			27.459	4069	27.459
4070			27.46575	4070	27.46575
4071			27.4725	4071	27.4725
4072			27.47925	4072	27.47925
4073			27.486	4073	27.486
4074			27.49275	4074	27.49275
4075			27.4995	4075	27.4995
4076			27.50625	4076	27.50625
4077			27.513	4077	27.513
4078			27.519751	4078	27.519751
4079			27.526501	4079	27.526501
4080			27.533251	4080	27.533251
4081			27.540001	4081	27.540001
4082			27.546751	4082	27.546751
4083			27.553499	4083	27.553499
4084			27.560249	4084	27.560249
4085			27.566999	4085	27.566999
4086			27.57375	4086	27.57375
4087			27.5805	4087	27.5805
4088			27.58725	4088	27.58725
4089			27.594	4089	27.594
4090			27.60075	4090	27.60075
4091			27.6075	4091	27.6075
4092			27.61425	4092	27.61425
4093			27.621	4093	27.621
4094			27.62775	4094	27.62775
4095			27.634501	4095	27.634501
